
Integration time [ms]:  10.000
Averaging Nr. [scans]: 10
Smoothing Nr. [pixels]: 0
Data measured with spectrometer [name]: 1911294U1
Wave   ;Sample   ;Dark     ;Reference;Absorbance
[nm]   ;[counts] ;[counts] ;[counts] ;[A.U]

 860.61; 1624.300; 1551.700; 1907.800; 0.69064
 864.82; 1580.900; 1505.600; 1955.500; 0.77632
 869.02; 1589.000; 1514.900; 2034.000; 0.84543
 873.23; 1617.400; 1530.300; 2122.800; 0.83267
 877.43; 1573.700; 1494.800; 2149.500; 0.91897
 881.63; 1612.300; 1530.800; 2256.000; 0.94930
 885.83; 1591.400; 1499.600; 2300.600; 0.94079
 890.03; 1590.600; 1501.000; 2363.200; 0.98330
 894.23; 1601.000; 1498.400; 2434.200; 0.96004
 898.42; 1578.900; 1490.200; 2489.500; 1.05177
 902.62; 1626.800; 1522.400; 2605.100; 1.01581
 906.81; 1591.300; 1488.700; 2644.500; 1.05174
 911.00; 1600.400; 1494.400; 2732.000; 1.06727
 915.19; 1612.800; 1503.000; 2840.700; 1.08576
 919.38; 1659.200; 1541.400; 2988.000; 1.08920
 923.57; 1594.700; 1477.600; 3060.100; 1.13079
 927.76; 1642.000; 1511.200; 3297.300; 1.13530
 931.94; 1629.600; 1493.300; 3511.600; 1.17049
 936.13; 1665.400; 1516.000; 3764.700; 1.17758
 940.31; 1640.200; 1484.900; 3931.100; 1.19732
 944.49; 1709.100; 1547.000; 4163.000; 1.20785
 948.67; 1691.500; 1518.900; 4297.000; 1.20671
 952.85; 1671.200; 1493.400; 4427.000; 1.21747
 957.03; 1683.600; 1501.100; 4604.000; 1.23050
 961.21; 1709.500; 1518.200; 4778.500; 1.23154
 965.38; 1702.900; 1507.600; 4921.400; 1.24254
 969.55; 1702.200; 1505.800; 5072.200; 1.25909
 973.73; 1730.500; 1520.500; 5253.800; 1.24987
 977.90; 1722.600; 1511.100; 5413.200; 1.26599
 982.06; 1738.100; 1518.800; 5592.700; 1.26897
 986.23; 1736.900; 1506.000; 5748.000; 1.26415
 990.40; 1755.300; 1519.400; 5941.100; 1.27286
 994.56; 1785.800; 1538.400; 6129.700; 1.26854
 998.72; 1788.900; 1541.900; 6290.500; 1.28387
1002.88; 1761.500; 1510.200; 6415.300; 1.29046
1007.04; 1783.400; 1529.400; 6579.000; 1.29842
1011.20; 1782.300; 1519.900; 6717.500; 1.29684
1015.36; 1815.500; 1543.200; 6867.300; 1.29120
1019.51; 1781.200; 1510.000; 6947.400; 1.30210
1023.67; 1803.400; 1530.900; 7080.200; 1.30887
1027.82; 1796.300; 1512.800; 7172.800; 1.30026
1031.97; 1813.200; 1525.500; 7291.600; 1.30194
1036.12; 1810.900; 1523.900; 7384.200; 1.31004
1040.27; 1814.900; 1520.100; 7490.500; 1.30648
1044.41; 1818.800; 1522.700; 7585.300; 1.31122
1048.56; 1836.900; 1534.900; 7704.000; 1.31021
1052.70; 1826.200; 1519.500; 7789.500; 1.31055
1056.84; 1840.100; 1529.400; 7905.400; 1.31221
1060.98; 1811.400; 1501.100; 7985.000; 1.32005
1065.11; 1832.400; 1513.900; 8119.500; 1.31680
1069.25; 1850.300; 1526.700; 8264.000; 1.31848
1073.38; 1863.700; 1527.800; 8408.100; 1.31140
1077.52; 1883.000; 1546.500; 8548.800; 1.31826
1081.65; 1868.500; 1532.900; 8683.900; 1.32854
1085.77; 1874.100; 1527.000; 8829.600; 1.32302
1089.90; 1884.600; 1533.700; 8986.900; 1.32716
1094.03; 1859.000; 1500.400; 9113.600; 1.32696
1098.15; 1909.400; 1546.400; 9322.700; 1.33087
1102.27; 1855.000; 1489.800; 9441.600; 1.33793
1106.39; 1903.600; 1527.600; 9661.400; 1.33511
1110.51; 1941.200; 1551.400; 9878.200; 1.32964
1114.63; 1895.900; 1500.800;10067.700; 1.33612
1118.74; 1960.400; 1553.000;10360.700; 1.33484
1122.85; 1940.400; 1530.700;10522.800; 1.34140
1126.96; 1918.500; 1503.600;10642.400; 1.34295
1131.07; 1980.800; 1554.700;10786.500; 1.33577
1135.18; 1926.800; 1504.600;10802.100; 1.34285
1139.29; 1942.600; 1516.000;10868.600; 1.34091
1143.39; 1971.500; 1538.200;10912.400; 1.33515
1147.49; 1941.900; 1518.500;10897.900; 1.34542
1151.59; 1942.100; 1515.000;10914.000; 1.34255
1155.69; 1972.200; 1541.600;10966.800; 1.34022
1159.78; 1931.000; 1502.700;10951.200; 1.34361
1163.88; 1970.500; 1536.300;11019.900; 1.33928
1167.97; 1973.000; 1537.000;11049.100; 1.33879
1172.06; 1944.800; 1514.600;11052.300; 1.34577
1176.15; 1947.200; 1511.400;11073.900; 1.34128
1180.23; 1991.400; 1549.600;11155.900; 1.33733
1184.32; 1937.100; 1494.700;11140.100; 1.33851
1188.40; 1953.700; 1514.000;11201.700; 1.34306
1192.48; 1960.600; 1515.300;11260.500; 1.34014
1196.56; 1966.400; 1521.200;11309.800; 1.34217
1200.64; 1986.000; 1534.600;11380.300; 1.33869
1204.71; 1958.500; 1514.200;11415.100; 1.34800
1208.78; 1975.800; 1522.400;11476.100; 1.34150
1212.85; 2000.400; 1547.900;11559.600; 1.34489
1216.92; 1929.000; 1476.200;11533.500; 1.34657
1220.99; 1990.800; 1534.300;11668.800; 1.34636
1225.05; 1985.600; 1527.500;11719.100; 1.34728
1229.11; 1968.300; 1506.200;11777.200; 1.34688
1233.17; 2008.100; 1537.300;11867.500; 1.34127
1237.23; 2007.300; 1535.100;11935.000; 1.34290
1241.29; 1999.500; 1531.200;11992.800; 1.34907
1245.34; 2032.100; 1560.000;12107.000; 1.34909
1249.39; 1975.100; 1500.000;12117.900; 1.34925
1253.44; 1995.200; 1518.900;12212.500; 1.35124
1257.49; 2039.400; 1552.800;12334.500; 1.34552
1261.53; 2004.600; 1518.900;12369.900; 1.34910
1265.58; 2016.300; 1525.900;12452.600; 1.34794
1269.62; 2011.800; 1519.600;12529.800; 1.34965
1273.65; 2020.500; 1519.900;12603.400; 1.34519
1277.69; 2011.300; 1518.000;12681.800; 1.35470
1281.72; 2033.800; 1530.100;12773.400; 1.34872
1285.76; 2032.100; 1529.900;12851.500; 1.35303
1289.79; 2030.700; 1520.800;12909.400; 1.34899
1293.81; 2019.700; 1511.100;12974.600; 1.35294
1297.84; 2000.200; 1490.200;13004.900; 1.35368
1301.86; 2065.600; 1546.100;13137.300; 1.34854
1305.88; 2031.100; 1520.800;13163.800; 1.35824
1309.90; 2060.600; 1541.300;13243.300; 1.35284
1313.92; 2018.600; 1497.800;13236.900; 1.35296
1317.93; 2054.900; 1527.400;13321.700; 1.34945
1321.94; 2038.900; 1516.400;13349.300; 1.35500
1325.95; 2042.700; 1515.800;13392.300; 1.35296
1329.96; 2060.600; 1527.200;13449.200; 1.34930
1333.96; 2058.000; 1523.500;13501.700; 1.35044
1337.96; 2064.000; 1525.700;13575.100; 1.34994
1341.96; 2070.300; 1530.100;13604.900; 1.34933
1345.96; 2046.900; 1514.800;13535.100; 1.35392
1349.95; 2027.500; 1504.900;13357.000; 1.35563
1353.95; 2010.300; 1500.800;13080.300; 1.35655
1357.94; 2013.400; 1519.000;12810.900; 1.35869
1361.92; 2009.500; 1525.200;12577.700; 1.35835
1365.91; 1989.400; 1509.100;12495.800; 1.35935
1369.89; 1980.600; 1500.900;12522.200; 1.36126
1373.87; 1967.400; 1483.400;12502.700; 1.35731
1377.85; 2018.400; 1541.800;12256.400; 1.35182
1381.82; 1949.900; 1495.800;11839.800; 1.35754
1385.80; 2001.300; 1542.900;11856.600; 1.35217
1389.77; 1987.100; 1524.900;11869.500; 1.34988
1393.74; 1964.000; 1509.900;11804.200; 1.35545
1397.70; 2013.600; 1552.300;11918.000; 1.35162
1401.66; 1992.400; 1522.100;11986.800; 1.34735
1405.62; 1968.800; 1502.000;12055.500; 1.35427
1409.58; 2007.900; 1528.700;12203.600; 1.34785
1413.54; 2000.300; 1519.400;12293.200; 1.35031
1417.49; 1963.300; 1476.800;12292.900; 1.34699
1421.44; 2011.900; 1523.100;12384.600; 1.34676
1425.39; 1995.500; 1510.500;12382.800; 1.35058
1429.33; 2016.900; 1525.700;12395.900; 1.34498
1433.27; 2007.900; 1523.700;12370.200; 1.35026
1437.21; 1986.700; 1502.800;12323.500; 1.34950
1441.15; 2030.400; 1543.700;12339.600; 1.34600
1445.09; 2015.300; 1531.000;12292.800; 1.34677
1449.02; 1968.600; 1489.700;12200.500; 1.34958
1452.95; 2018.300; 1529.700;12230.100; 1.34045
1456.87; 2008.200; 1524.100;12175.900; 1.34249
1460.80; 1990.700; 1510.600;12112.200; 1.34404
1464.72; 1976.800; 1502.500;12023.800; 1.34602
1468.64; 1977.900; 1502.300;11961.600; 1.34226
1472.55; 1991.300; 1518.100;11913.700; 1.34180
1476.47; 2002.100; 1531.300;11884.300; 1.34223
1480.38; 1991.500; 1517.300;11801.000; 1.33619
1484.28; 1998.500; 1535.000;11762.600; 1.34372
1488.19; 1980.300; 1522.200;11690.100; 1.34627
1492.09; 1949.400; 1489.900;11596.700; 1.34233
1495.99; 1967.900; 1506.600;11539.600; 1.33745
1499.89; 1973.900; 1513.300;11504.200; 1.33628
1503.78; 1969.300; 1515.200;11427.600; 1.33903
1507.67; 1993.200; 1539.800;11381.400; 1.33658
1511.56; 1945.600; 1498.300;11268.800; 1.33932
1515.44; 1974.200; 1525.700;11237.600; 1.33554
1519.33; 1955.600; 1515.200;11135.600; 1.33935
1523.21; 1967.600; 1523.900;11078.700; 1.33313
1527.08; 1952.700; 1519.400;10990.300; 1.33960
1530.96; 1937.400; 1500.300;10886.000; 1.33189
1534.83; 1975.100; 1544.300;10845.200; 1.33425
1538.70; 1935.500; 1508.600;10715.900; 1.33381
1542.56; 1914.500; 1500.900;10619.900; 1.34337
1546.42; 1936.100; 1517.300;10554.500; 1.33403
1550.28; 1930.900; 1513.400;10453.100; 1.33067
1554.14; 1925.300; 1508.800;10345.500; 1.32668
1557.99; 1932.600; 1525.700;10266.900; 1.33208
1561.84; 1896.300; 1498.400;10122.900; 1.33596
1565.69; 1910.200; 1516.200;10052.800; 1.33579
1569.54; 1900.400; 1503.300; 9933.900; 1.32696
1573.38; 1893.000; 1501.700; 9824.400; 1.32775
1577.22; 1915.500; 1527.000; 9752.100; 1.32575
1581.05; 1893.000; 1512.400; 9625.200; 1.32870
1584.89; 1901.800; 1524.900; 9522.100; 1.32671
1588.72; 1896.300; 1517.700; 9409.100; 1.31897
1592.54; 1872.500; 1506.200; 9274.600; 1.32649
1596.37; 1886.500; 1517.200; 9177.600; 1.31687
1600.19; 1869.900; 1510.100; 9050.400; 1.32133
1604.01; 1840.400; 1486.400; 8899.400; 1.32099
1607.82; 1853.000; 1509.800; 8796.900; 1.32701
1611.63; 1824.100; 1480.100; 8624.900; 1.31743
1615.44; 1894.400; 1553.300; 8575.400; 1.31359
1619.25; 1817.300; 1486.200; 8361.300; 1.31732
1623.05; 1802.400; 1479.000; 8208.600; 1.31825
1626.85; 1835.300; 1513.000; 8103.300; 1.31064
1630.64; 1846.800; 1524.000; 7969.700; 1.30034
1634.44; 1815.000; 1504.600; 7800.200; 1.30712
1638.23; 1812.600; 1503.300; 7652.600; 1.29845
1642.01; 1804.300; 1506.800; 7500.000; 1.30417
1645.80; 1794.200; 1499.800; 7336.400; 1.29722
1649.58; 1789.100; 1507.600; 7165.100; 1.30315
1653.35; 1834.600; 1554.000; 7043.000; 1.29141
1657.13; 1754.700; 1486.500; 6816.300; 1.29825
1660.90; 1764.500; 1500.200; 6658.700; 1.29043
1664.67; 1747.200; 1492.900; 6464.500; 1.29115
1668.43; 1753.600; 1506.200; 6271.300; 1.28467
1672.19; 1764.800; 1522.100; 6011.600; 1.26713
1675.95; 1722.100; 1493.800; 5613.400; 1.25635
1679.70; 1740.900; 1530.900; 5235.900; 1.24657
1683.46; 1687.400; 1497.800; 4742.900; 1.23339
1687.20; 1681.700; 1511.400; 4295.600; 1.21349
1690.95; 1658.900; 1504.400; 3867.300; 1.18452
1694.69; 1657.600; 1514.400; 3526.700; 1.14775
1698.43; 1608.600; 1482.500; 3185.600; 1.13053
1702.16; 1614.700; 1497.600; 2968.200; 1.09894
1705.89; 1610.900; 1499.300; 2779.100; 1.05948
1709.62; 1589.500; 1493.100; 2618.100; 1.06708
1713.35; 1625.100; 1522.600; 2525.400; 0.99049
1717.07; 1580.600; 1492.000; 2393.400; 1.00748
1720.79; 1612.900; 1513.300; 2338.300; 0.91819
1724.50; 1609.500; 1514.000; 2272.300; 0.89984
1728.21; 1584.400; 1499.400; 2201.400; 0.91692
1731.92; 1580.700; 1495.900; 2152.500; 0.88891
1735.63; 1568.100; 1483.800; 2109.800; 0.87075
1739.33; 1606.900; 1525.100; 2113.700; 0.85707
1743.02; 1582.400; 1493.200; 2053.800; 0.79829
1746.72; 1579.200; 1494.300; 2031.700; 0.80139
1750.41; 1583.700; 1502.900; 2014.600; 0.80160
1754.10; 1594.700; 1515.500; 2011.500; 0.79676

