
Integration time [ms]:  10.000
Averaging Nr. [scans]: 10
Smoothing Nr. [pixels]: 0
Data measured with spectrometer [name]: 1911294U1
Wave   ;Sample   ;Dark     ;Reference;Absorbance
[nm]   ;[counts] ;[counts] ;[counts] ;[A.U]

 860.61; 1630.100; 1551.700; 1907.800; 0.65726
 864.82; 1587.800; 1505.600; 1955.500; 0.73824
 869.02; 1602.200; 1514.900; 2034.000; 0.77424
 873.23; 1620.200; 1530.300; 2122.800; 0.81893
 877.43; 1581.100; 1494.800; 2149.500; 0.88003
 881.63; 1621.000; 1530.800; 2256.000; 0.90525
 885.83; 1599.800; 1499.600; 2300.600; 0.90276
 890.03; 1597.000; 1501.000; 2363.200; 0.95334
 894.23; 1602.500; 1498.400; 2434.200; 0.95373
 898.42; 1589.900; 1490.200; 2489.500; 1.00100
 902.62; 1631.300; 1522.400; 2605.100; 0.99748
 906.81; 1598.100; 1488.700; 2644.500; 1.02387
 911.00; 1605.100; 1494.400; 2732.000; 1.04843
 915.19; 1617.800; 1503.000; 2840.700; 1.06642
 919.38; 1665.800; 1541.400; 2988.000; 1.06553
 923.57; 1601.300; 1477.600; 3060.100; 1.10697
 927.76; 1648.600; 1511.200; 3297.300; 1.11392
 931.94; 1636.600; 1493.300; 3511.600; 1.14874
 936.13; 1668.200; 1516.000; 3764.700; 1.16952
 940.31; 1641.400; 1484.900; 3931.100; 1.19398
 944.49; 1718.500; 1547.000; 4163.000; 1.18337
 948.67; 1698.500; 1518.900; 4297.000; 1.18944
 952.85; 1669.200; 1493.400; 4427.000; 1.22238
 957.03; 1688.800; 1501.100; 4604.000; 1.21830
 961.21; 1715.200; 1518.200; 4778.500; 1.21879
 965.38; 1705.900; 1507.600; 4921.400; 1.23592
 969.55; 1703.900; 1505.800; 5072.200; 1.25535
 973.73; 1736.800; 1520.500; 5253.800; 1.23704
 977.90; 1728.000; 1511.100; 5413.200; 1.25504
 982.06; 1743.700; 1518.800; 5592.700; 1.25802
 986.23; 1741.900; 1506.000; 5748.000; 1.25484
 990.40; 1760.100; 1519.400; 5941.100; 1.26411
 994.56; 1788.100; 1538.400; 6129.700; 1.26452
 998.72; 1791.800; 1541.900; 6290.500; 1.27880
1002.88; 1766.400; 1510.200; 6415.300; 1.28207
1007.04; 1793.500; 1529.400; 6579.000; 1.28149
1011.20; 1790.500; 1519.900; 6717.500; 1.28348
1015.36; 1821.800; 1543.200; 6867.300; 1.28127
1019.51; 1792.000; 1510.000; 6947.400; 1.28514
1023.67; 1809.200; 1530.900; 7080.200; 1.29972
1027.82; 1798.700; 1512.800; 7172.800; 1.29660
1031.97; 1815.800; 1525.500; 7291.600; 1.29804
1036.12; 1814.700; 1523.900; 7384.200; 1.30433
1040.27; 1816.100; 1520.100; 7490.500; 1.30471
1044.41; 1818.600; 1522.700; 7585.300; 1.31151
1048.56; 1838.300; 1534.900; 7704.000; 1.30821
1052.70; 1826.700; 1519.500; 7789.500; 1.30985
1056.84; 1843.300; 1529.400; 7905.400; 1.30776
1060.98; 1812.700; 1501.100; 7985.000; 1.31824
1065.11; 1833.800; 1513.900; 8119.500; 1.31490
1069.25; 1856.100; 1526.700; 8264.000; 1.31076
1073.38; 1864.600; 1527.800; 8408.100; 1.31024
1077.52; 1881.700; 1546.500; 8548.800; 1.31994
1081.65; 1871.300; 1532.900; 8683.900; 1.32494
1085.77; 1871.000; 1527.000; 8829.600; 1.32692
1089.90; 1891.100; 1533.700; 8986.900; 1.31919
1094.03; 1859.500; 1500.400; 9113.600; 1.32635
1098.15; 1908.200; 1546.400; 9322.700; 1.33230
1102.27; 1857.700; 1489.800; 9441.600; 1.33474
1106.39; 1904.600; 1527.600; 9661.400; 1.33395
1110.51; 1940.300; 1551.400; 9878.200; 1.33064
1114.63; 1894.300; 1500.800;10067.700; 1.33788
1118.74; 1961.700; 1553.000;10360.700; 1.33346
1122.85; 1942.400; 1530.700;10522.800; 1.33928
1126.96; 1923.500; 1503.600;10642.400; 1.33774
1131.07; 1984.200; 1554.700;10786.500; 1.33232
1135.18; 1927.600; 1504.600;10802.100; 1.34203
1139.29; 1943.400; 1516.000;10868.600; 1.34010
1143.39; 1964.800; 1538.200;10912.400; 1.34191
1147.49; 1944.300; 1518.500;10897.900; 1.34297
1151.59; 1944.600; 1515.000;10914.000; 1.34002
1155.69; 1977.100; 1541.600;10966.800; 1.33530
1159.78; 1932.800; 1502.700;10951.200; 1.34179
1163.88; 1974.500; 1536.300;11019.900; 1.33530
1167.97; 1976.100; 1537.000;11049.100; 1.33571
1172.06; 1946.800; 1514.600;11052.300; 1.34376
1176.15; 1948.600; 1511.400;11073.900; 1.33989
1180.23; 1993.400; 1549.600;11155.900; 1.33537
1184.32; 1936.400; 1494.700;11140.100; 1.33919
1188.40; 1956.200; 1514.000;11201.700; 1.34060
1192.48; 1963.800; 1515.300;11260.500; 1.33703
1196.56; 1966.700; 1521.200;11309.800; 1.34187
1200.64; 1991.300; 1534.600;11380.300; 1.33362
1204.71; 1966.400; 1514.200;11415.100; 1.34034
1208.78; 1980.500; 1522.400;11476.100; 1.33702
1212.85; 2004.300; 1547.900;11559.600; 1.34116
1216.92; 1925.400; 1476.200;11533.500; 1.35004
1220.99; 1993.500; 1534.300;11668.800; 1.34380
1225.05; 1995.600; 1527.500;11719.100; 1.33790
1229.11; 1972.100; 1506.200;11777.200; 1.34332
1233.17; 2007.800; 1537.300;11867.500; 1.34155
1237.23; 2003.900; 1535.100;11935.000; 1.34604
1241.29; 2003.000; 1531.200;11992.800; 1.34584
1245.34; 2032.100; 1560.000;12107.000; 1.34909
1249.39; 1978.700; 1500.000;12117.900; 1.34598
1253.44; 1997.700; 1518.900;12212.500; 1.34897
1257.49; 2043.000; 1552.800;12334.500; 1.34231
1261.53; 2003.400; 1518.900;12369.900; 1.35018
1265.58; 2014.700; 1525.900;12452.600; 1.34936
1269.62; 2009.700; 1519.600;12529.800; 1.35151
1273.65; 2019.800; 1519.900;12603.400; 1.34579
1277.69; 2011.200; 1518.000;12681.800; 1.35479
1281.72; 2034.000; 1530.100;12773.400; 1.34855
1285.76; 2033.900; 1529.900;12851.500; 1.35148
1289.79; 2030.900; 1520.800;12909.400; 1.34882
1293.81; 2020.400; 1511.100;12974.600; 1.35234
1297.84; 2000.800; 1490.200;13004.900; 1.35317
1301.86; 2060.400; 1546.100;13137.300; 1.35291
1305.88; 2038.400; 1520.800;13163.800; 1.35207
1309.90; 2060.400; 1541.300;13243.300; 1.35301
1313.92; 2018.500; 1497.800;13236.900; 1.35305
1317.93; 2048.500; 1527.400;13321.700; 1.35475
1321.94; 2041.900; 1516.400;13349.300; 1.35252
1325.95; 2042.900; 1515.800;13392.300; 1.35280
1329.96; 2062.900; 1527.200;13449.200; 1.34743
1333.96; 2056.300; 1523.500;13501.700; 1.35183
1337.96; 2062.000; 1525.700;13575.100; 1.35156
1341.96; 2068.500; 1530.100;13604.900; 1.35077
1345.96; 2048.100; 1514.800;13535.100; 1.35294
1349.95; 2027.100; 1504.900;13357.000; 1.35596
1353.95; 2009.800; 1500.800;13080.300; 1.35697
1357.94; 2013.500; 1519.000;12810.900; 1.35860
1361.92; 2015.200; 1525.200;12577.700; 1.35326
1365.91; 1990.700; 1509.100;12495.800; 1.35818
1369.89; 1979.100; 1500.900;12522.200; 1.36262
1373.87; 1971.100; 1483.400;12502.700; 1.35400
1377.85; 2017.300; 1541.800;12256.400; 1.35283
1381.82; 1952.600; 1495.800;11839.800; 1.35496
1385.80; 2003.700; 1542.900;11856.600; 1.34990
1389.77; 1986.300; 1524.900;11869.500; 1.35064
1393.74; 1965.200; 1509.900;11804.200; 1.35430
1397.70; 2013.000; 1552.300;11918.000; 1.35218
1401.66; 1988.700; 1522.100;11986.800; 1.35078
1405.62; 1966.100; 1502.000;12055.500; 1.35678
1409.58; 2004.700; 1528.700;12203.600; 1.35076
1413.54; 2002.600; 1519.400;12293.200; 1.34824
1417.49; 1957.000; 1476.800;12292.900; 1.35265
1421.44; 2010.800; 1523.100;12384.600; 1.34774
1425.39; 2000.500; 1510.500;12382.800; 1.34613
1429.33; 2018.400; 1525.700;12395.900; 1.34365
1433.27; 2010.600; 1523.700;12370.200; 1.34785
1437.21; 1987.500; 1502.800;12323.500; 1.34878
1441.15; 2032.100; 1543.700;12339.600; 1.34448
1445.09; 2016.800; 1531.000;12292.800; 1.34543
1449.02; 1965.700; 1489.700;12200.500; 1.35221
1452.95; 2015.900; 1529.700;12230.100; 1.34259
1456.87; 2011.600; 1524.100;12175.900; 1.33945
1460.80; 1996.900; 1510.600;12112.200; 1.33847
1464.72; 1982.000; 1502.500;12023.800; 1.34128
1468.64; 1976.300; 1502.300;11961.600; 1.34372
1472.55; 1992.200; 1518.100;11913.700; 1.34098
1476.47; 2000.600; 1531.300;11884.300; 1.34362
1480.38; 1989.400; 1517.300;11801.000; 1.33812
1484.28; 2000.300; 1535.000;11762.600; 1.34204
1488.19; 1983.600; 1522.200;11690.100; 1.34315
1492.09; 1945.900; 1489.900;11596.700; 1.34565
1495.99; 1964.900; 1506.600;11539.600; 1.34028
1499.89; 1973.700; 1513.300;11504.200; 1.33647
1503.78; 1969.900; 1515.200;11427.600; 1.33845
1507.67; 1992.900; 1539.800;11381.400; 1.33687
1511.56; 1946.100; 1498.300;11268.800; 1.33883
1515.44; 1975.400; 1525.700;11237.600; 1.33438
1519.33; 1956.400; 1515.200;11135.600; 1.33856
1523.21; 1968.000; 1523.900;11078.700; 1.33274
1527.08; 1956.500; 1519.400;10990.300; 1.33581
1530.96; 1938.000; 1500.300;10886.000; 1.33129
1534.83; 1978.800; 1544.300;10845.200; 1.33054
1538.70; 1933.000; 1508.600;10715.900; 1.33636
1542.56; 1916.600; 1500.900;10619.900; 1.34117
1546.42; 1934.800; 1517.300;10554.500; 1.33538
1550.28; 1930.700; 1513.400;10453.100; 1.33087
1554.14; 1926.500; 1508.800;10345.500; 1.32543
1557.99; 1935.300; 1525.700;10266.900; 1.32921
1561.84; 1900.000; 1498.400;10122.900; 1.33194
1565.69; 1914.100; 1516.200;10052.800; 1.33151
1569.54; 1898.700; 1503.300; 9933.900; 1.32882
1573.38; 1895.600; 1501.700; 9824.400; 1.32488
1577.22; 1915.100; 1527.000; 9752.100; 1.32620
1581.05; 1900.400; 1512.400; 9625.200; 1.32034
1584.89; 1906.500; 1524.900; 9522.100; 1.32133
1588.72; 1895.600; 1517.700; 9409.100; 1.31978
1592.54; 1871.000; 1506.200; 9274.600; 1.32828
1596.37; 1892.800; 1517.200; 9177.600; 1.30953
1600.19; 1874.700; 1510.100; 9050.400; 1.31557
1604.01; 1844.900; 1486.400; 8899.400; 1.31550
1607.82; 1855.700; 1509.800; 8796.900; 1.32360
1611.63; 1831.100; 1480.100; 8624.900; 1.30868
1615.44; 1899.200; 1553.300; 8575.400; 1.30752
1619.25; 1815.400; 1486.200; 8361.300; 1.31982
1623.05; 1808.100; 1479.000; 8208.600; 1.31066
1626.85; 1844.000; 1513.000; 8103.300; 1.29908
1630.64; 1846.600; 1524.000; 7969.700; 1.30061
1634.44; 1817.900; 1504.600; 7800.200; 1.30308
1638.23; 1810.900; 1503.300; 7652.600; 1.30084
1642.01; 1807.500; 1506.800; 7500.000; 1.29953
1645.80; 1797.900; 1499.800; 7336.400; 1.29180
1649.58; 1796.600; 1507.600; 7165.100; 1.29173
1653.35; 1836.800; 1554.000; 7043.000; 1.28801
1657.13; 1760.800; 1486.500; 6816.300; 1.28849
1660.90; 1768.800; 1500.200; 6658.700; 1.28342
1664.67; 1746.700; 1492.900; 6464.500; 1.29200
1668.43; 1759.300; 1506.200; 6271.300; 1.27478
1672.19; 1768.100; 1522.100; 6011.600; 1.26126
1675.95; 1721.000; 1493.800; 5613.400; 1.25845
1679.70; 1747.900; 1530.900; 5235.900; 1.23233
1683.46; 1692.100; 1497.800; 4742.900; 1.22276
1687.20; 1685.500; 1511.400; 4295.600; 1.20390
1690.95; 1669.100; 1504.400; 3867.300; 1.15675
1694.69; 1656.200; 1514.400; 3526.700; 1.15202
1698.43; 1612.700; 1482.500; 3185.600; 1.11663
1702.16; 1621.700; 1497.600; 2968.200; 1.07372
1705.89; 1622.800; 1499.300; 2779.100; 1.01548
1709.62; 1599.200; 1493.100; 2618.100; 1.02544
1713.35; 1631.800; 1522.600; 2525.400; 0.96299
1717.07; 1587.200; 1492.000; 2393.400; 0.97628
1720.79; 1611.300; 1513.300; 2338.300; 0.92523
1724.50; 1613.900; 1514.000; 2272.300; 0.88028
1728.21; 1587.600; 1499.400; 2201.400; 0.90087
1731.92; 1584.100; 1495.900; 2152.500; 0.87183
1735.63; 1574.100; 1483.800; 2109.800; 0.84089
1739.33; 1611.100; 1525.100; 2113.700; 0.83532
1743.02; 1583.400; 1493.200; 2053.800; 0.79345
1746.72; 1578.300; 1494.300; 2031.700; 0.80602
1750.41; 1589.500; 1502.900; 2014.600; 0.77150
1754.10; 1599.100; 1515.500; 2011.500; 0.77328

