
Integration time [ms]:  10.000
Averaging Nr. [scans]: 10
Smoothing Nr. [pixels]: 0
Data measured with spectrometer [name]: 1911294U1
Wave   ;Sample   ;Dark     ;Reference;Absorbance
[nm]   ;[counts] ;[counts] ;[counts] ;[A.U]

 860.61; 1628.300; 1551.700; 1907.800; 0.66734
 864.82; 1585.100; 1505.600; 1955.500; 0.75275
 869.02; 1595.100; 1514.900; 2034.000; 0.81108
 873.23; 1615.900; 1530.300; 2122.800; 0.84021
 877.43; 1571.500; 1494.800; 2149.500; 0.93125
 881.63; 1620.000; 1530.800; 2256.000; 0.91009
 885.83; 1591.500; 1499.600; 2300.600; 0.94032
 890.03; 1594.700; 1501.000; 2363.200; 0.96387
 894.23; 1596.600; 1498.400; 2434.200; 0.97907
 898.42; 1582.500; 1490.200; 2489.500; 1.03449
 902.62; 1625.900; 1522.400; 2605.100; 1.01957
 906.81; 1590.700; 1488.700; 2644.500; 1.05428
 911.00; 1600.200; 1494.400; 2732.000; 1.06809
 915.19; 1613.100; 1503.000; 2840.700; 1.08457
 919.38; 1661.900; 1541.400; 2988.000; 1.07936
 923.57; 1596.000; 1477.600; 3060.100; 1.12599
 927.76; 1641.500; 1511.200; 3297.300; 1.13696
 931.94; 1629.900; 1493.300; 3511.600; 1.16954
 936.13; 1664.400; 1516.000; 3764.700; 1.18050
 940.31; 1639.200; 1484.900; 3931.100; 1.20013
 944.49; 1714.400; 1547.000; 4163.000; 1.19388
 948.67; 1693.000; 1518.900; 4297.000; 1.20295
 952.85; 1670.100; 1493.400; 4427.000; 1.22016
 957.03; 1686.700; 1501.100; 4604.000; 1.22319
 961.21; 1704.600; 1518.200; 4778.500; 1.24281
 965.38; 1703.000; 1507.600; 4921.400; 1.24231
 969.55; 1702.600; 1505.800; 5072.200; 1.25820
 973.73; 1730.100; 1520.500; 5253.800; 1.25070
 977.90; 1725.200; 1511.100; 5413.200; 1.26068
 982.06; 1736.400; 1518.800; 5592.700; 1.27235
 986.23; 1731.200; 1506.000; 5748.000; 1.27500
 990.40; 1757.400; 1519.400; 5941.100; 1.26901
 994.56; 1786.600; 1538.400; 6129.700; 1.26713
 998.72; 1793.700; 1541.900; 6290.500; 1.27551
1002.88; 1766.100; 1510.200; 6415.300; 1.28258
1007.04; 1789.400; 1529.400; 6579.000; 1.28828
1011.20; 1790.200; 1519.900; 6717.500; 1.28396
1015.36; 1814.400; 1543.200; 6867.300; 1.29296
1019.51; 1780.200; 1510.000; 6947.400; 1.30371
1023.67; 1802.400; 1530.900; 7080.200; 1.31047
1027.82; 1794.800; 1512.800; 7172.800; 1.30257
1031.97; 1813.300; 1525.500; 7291.600; 1.30179
1036.12; 1808.500; 1523.900; 7384.200; 1.31368
1040.27; 1811.200; 1520.100; 7490.500; 1.31196
1044.41; 1820.900; 1522.700; 7585.300; 1.30815
1048.56; 1833.500; 1534.900; 7704.000; 1.31513
1052.70; 1820.200; 1519.500; 7789.500; 1.31913
1056.84; 1839.700; 1529.400; 7905.400; 1.31277
1060.98; 1807.500; 1501.100; 7985.000; 1.32555
1065.11; 1833.500; 1513.900; 8119.500; 1.31531
1069.25; 1850.000; 1526.700; 8264.000; 1.31888
1073.38; 1861.200; 1527.800; 8408.100; 1.31464
1077.52; 1877.300; 1546.500; 8548.800; 1.32568
1081.65; 1872.400; 1532.900; 8683.900; 1.32353
1085.77; 1875.600; 1527.000; 8829.600; 1.32115
1089.90; 1882.100; 1533.700; 8986.900; 1.33026
1094.03; 1855.500; 1500.400; 9113.600; 1.33122
1098.15; 1907.800; 1546.400; 9322.700; 1.33278
1102.27; 1856.700; 1489.800; 9441.600; 1.33592
1106.39; 1899.700; 1527.600; 9661.400; 1.33963
1110.51; 1941.000; 1551.400; 9878.200; 1.32986
1114.63; 1895.400; 1500.800;10067.700; 1.33667
1118.74; 1958.200; 1553.000;10360.700; 1.33719
1122.85; 1938.100; 1530.700;10522.800; 1.34384
1126.96; 1915.500; 1503.600;10642.400; 1.34610
1131.07; 1978.600; 1554.700;10786.500; 1.33802
1135.18; 1924.800; 1504.600;10802.100; 1.34491
1139.29; 1938.800; 1516.000;10868.600; 1.34480
1143.39; 1967.000; 1538.200;10912.400; 1.33968
1147.49; 1943.400; 1518.500;10897.900; 1.34389
1151.59; 1946.000; 1515.000;10914.000; 1.33860
1155.69; 1967.300; 1541.600;10966.800; 1.34519
1159.78; 1929.500; 1502.700;10951.200; 1.34514
1163.88; 1969.300; 1536.300;11019.900; 1.34049
1167.97; 1970.400; 1537.000;11049.100; 1.34139
1172.06; 1947.600; 1514.600;11052.300; 1.34296
1176.15; 1943.000; 1511.400;11073.900; 1.34549
1180.23; 1991.000; 1549.600;11155.900; 1.33772
1184.32; 1927.100; 1494.700;11140.100; 1.34843
1188.40; 1953.200; 1514.000;11201.700; 1.34356
1192.48; 1960.400; 1515.300;11260.500; 1.34033
1196.56; 1962.800; 1521.200;11309.800; 1.34569
1200.64; 1985.000; 1534.600;11380.300; 1.33965
1204.71; 1963.300; 1514.200;11415.100; 1.34333
1208.78; 1973.500; 1522.400;11476.100; 1.34371
1212.85; 2000.100; 1547.900;11559.600; 1.34518
1216.92; 1920.900; 1476.200;11533.500; 1.35441
1220.99; 1990.000; 1534.300;11668.800; 1.34712
1225.05; 1983.300; 1527.500;11719.100; 1.34947
1229.11; 1966.900; 1506.200;11777.200; 1.34819
1233.17; 2005.000; 1537.300;11867.500; 1.34414
1237.23; 1999.600; 1535.100;11935.000; 1.35004
1241.29; 1999.000; 1531.200;11992.800; 1.34954
1245.34; 2031.700; 1560.000;12107.000; 1.34946
1249.39; 1971.700; 1500.000;12117.900; 1.35237
1253.44; 1997.700; 1518.900;12212.500; 1.34897
1257.49; 2034.500; 1552.800;12334.500; 1.34991
1261.53; 2001.300; 1518.900;12369.900; 1.35206
1265.58; 2015.500; 1525.900;12452.600; 1.34865
1269.62; 2010.600; 1519.600;12529.800; 1.35071
1273.65; 2016.300; 1519.900;12603.400; 1.34885
1277.69; 2010.000; 1518.000;12681.800; 1.35585
1281.72; 2032.400; 1530.100;12773.400; 1.34993
1285.76; 2035.500; 1529.900;12851.500; 1.35010
1289.79; 2027.200; 1520.800;12909.400; 1.35198
1293.81; 2018.500; 1511.100;12974.600; 1.35397
1297.84; 1995.100; 1490.200;13004.900; 1.35805
1301.86; 2062.500; 1546.100;13137.300; 1.35114
1305.88; 2033.800; 1520.800;13163.800; 1.35595
1309.90; 2059.700; 1541.300;13243.300; 1.35360
1313.92; 2014.000; 1497.800;13236.900; 1.35682
1317.93; 2048.600; 1527.400;13321.700; 1.35467
1321.94; 2039.000; 1516.400;13349.300; 1.35492
1325.95; 2043.300; 1515.800;13392.300; 1.35247
1329.96; 2061.900; 1527.200;13449.200; 1.34824
1333.96; 2053.500; 1523.500;13501.700; 1.35412
1337.96; 2060.500; 1525.700;13575.100; 1.35277
1341.96; 2067.900; 1530.100;13604.900; 1.35126
1345.96; 2043.800; 1514.800;13535.100; 1.35646
1349.95; 2026.600; 1504.900;13357.000; 1.35637
1353.95; 2009.400; 1500.800;13080.300; 1.35731
1357.94; 2012.900; 1519.000;12810.900; 1.35913
1361.92; 2012.000; 1525.200;12577.700; 1.35611
1365.91; 1985.900; 1509.100;12495.800; 1.36253
1369.89; 1979.000; 1500.900;12522.200; 1.36271
1373.87; 1972.000; 1483.400;12502.700; 1.35320
1377.85; 2014.800; 1541.800;12256.400; 1.35511
1381.82; 1954.900; 1495.800;11839.800; 1.35278
1385.80; 2002.400; 1542.900;11856.600; 1.35113
1389.77; 1983.700; 1524.900;11869.500; 1.35309
1393.74; 1967.100; 1509.900;11804.200; 1.35249
1397.70; 2014.400; 1552.300;11918.000; 1.35086
1401.66; 1988.700; 1522.100;11986.800; 1.35078
1405.62; 1968.400; 1502.000;12055.500; 1.35464
1409.58; 1999.300; 1528.700;12203.600; 1.35571
1413.54; 2002.100; 1519.400;12293.200; 1.34869
1417.49; 1959.500; 1476.800;12292.900; 1.35039
1421.44; 2008.100; 1523.100;12384.600; 1.35015
1425.39; 1992.200; 1510.500;12382.800; 1.35354
1429.33; 2014.600; 1525.700;12395.900; 1.34702
1433.27; 2004.700; 1523.700;12370.200; 1.35314
1437.21; 1984.700; 1502.800;12323.500; 1.35130
1441.15; 2029.900; 1543.700;12339.600; 1.34644
1445.09; 2012.300; 1531.000;12292.800; 1.34947
1449.02; 1968.000; 1489.700;12200.500; 1.35012
1452.95; 2010.500; 1529.700;12230.100; 1.34744
1456.87; 2005.500; 1524.100;12175.900; 1.34492
1460.80; 1996.000; 1510.600;12112.200; 1.33927
1464.72; 1971.900; 1502.500;12023.800; 1.35053
1468.64; 1971.900; 1502.300;11961.600; 1.34777
1472.55; 1987.800; 1518.100;11913.700; 1.34503
1476.47; 1996.700; 1531.300;11884.300; 1.34724
1480.38; 1988.800; 1517.300;11801.000; 1.33867
1484.28; 1997.800; 1535.000;11762.600; 1.34438
1488.19; 1983.000; 1522.200;11690.100; 1.34372
1492.09; 1944.700; 1489.900;11596.700; 1.34679
1495.99; 1960.900; 1506.600;11539.600; 1.34409
1499.89; 1970.200; 1513.300;11504.200; 1.33978
1503.78; 1971.700; 1515.200;11427.600; 1.33674
1507.67; 1986.200; 1539.800;11381.400; 1.34334
1511.56; 1942.900; 1498.300;11268.800; 1.34195
1515.44; 1981.300; 1525.700;11237.600; 1.32872
1519.33; 1955.600; 1515.200;11135.600; 1.33935
1523.21; 1964.300; 1523.900;11078.700; 1.33637
1527.08; 1955.900; 1519.400;10990.300; 1.33641
1530.96; 1939.800; 1500.300;10886.000; 1.32951
1534.83; 1971.700; 1544.300;10845.200; 1.33769
1538.70; 1929.000; 1508.600;10715.900; 1.34047
1542.56; 1919.800; 1500.900;10619.900; 1.33784
1546.42; 1937.400; 1517.300;10554.500; 1.33268
1550.28; 1926.800; 1513.400;10453.100; 1.33495
1554.14; 1920.400; 1508.800;10345.500; 1.33181
1557.99; 1935.000; 1525.700;10266.900; 1.32953
1561.84; 1897.000; 1498.400;10122.900; 1.33520
1565.69; 1914.500; 1516.200;10052.800; 1.33107
1569.54; 1898.400; 1503.300; 9933.900; 1.32915
1573.38; 1886.900; 1501.700; 9824.400; 1.33458
1577.22; 1911.100; 1527.000; 9752.100; 1.33070
1581.05; 1893.100; 1512.400; 9625.200; 1.32859
1584.89; 1904.200; 1524.900; 9522.100; 1.32396
1588.72; 1898.000; 1517.700; 9409.100; 1.31703
1592.54; 1868.300; 1506.200; 9274.600; 1.33150
1596.37; 1887.900; 1517.200; 9177.600; 1.31523
1600.19; 1868.800; 1510.100; 9050.400; 1.32266
1604.01; 1839.600; 1486.400; 8899.400; 1.32197
1607.82; 1852.800; 1509.800; 8796.900; 1.32726
1611.63; 1823.200; 1480.100; 8624.900; 1.31857
1615.44; 1894.600; 1553.300; 8575.400; 1.31333
1619.25; 1813.000; 1486.200; 8361.300; 1.32300
1623.05; 1803.300; 1479.000; 8208.600; 1.31704
1626.85; 1834.200; 1513.000; 8103.300; 1.31213
1630.64; 1844.300; 1524.000; 7969.700; 1.30371
1634.44; 1816.400; 1504.600; 7800.200; 1.30516
1638.23; 1812.200; 1503.300; 7652.600; 1.29901
1642.01; 1802.600; 1506.800; 7500.000; 1.30666
1645.80; 1787.800; 1499.800; 7336.400; 1.30677
1649.58; 1790.300; 1507.600; 7165.100; 1.30130
1653.35; 1835.600; 1554.000; 7043.000; 1.28986
1657.13; 1754.300; 1486.500; 6816.300; 1.29890
1660.90; 1763.600; 1500.200; 6658.700; 1.29191
1664.67; 1741.100; 1492.900; 6464.500; 1.30169
1668.43; 1756.500; 1506.200; 6271.300; 1.27961
1672.19; 1768.500; 1522.100; 6011.600; 1.26056
1675.95; 1712.800; 1493.800; 5613.400; 1.27441
1679.70; 1739.100; 1530.900; 5235.900; 1.25031
1683.46; 1685.400; 1497.800; 4742.900; 1.23800
1687.20; 1681.500; 1511.400; 4295.600; 1.21400
1690.95; 1655.700; 1504.400; 3867.300; 1.19361
1694.69; 1653.000; 1514.400; 3526.700; 1.16193
1698.43; 1603.800; 1482.500; 3185.600; 1.14738
1702.16; 1616.400; 1497.600; 2968.200; 1.09268
1705.89; 1608.100; 1499.300; 2779.100; 1.07051
1709.62; 1590.400; 1493.100; 2618.100; 1.06304
1713.35; 1625.900; 1522.600; 2525.400; 0.98711
1717.07; 1584.300; 1492.000; 2393.400; 0.98972
1720.79; 1606.400; 1513.300; 2338.300; 0.94750
1724.50; 1603.100; 1514.000; 2272.300; 0.92996
1728.21; 1585.600; 1499.400; 2201.400; 0.91083
1731.92; 1575.700; 1495.900; 2152.500; 0.91530
1735.63; 1564.600; 1483.800; 2109.800; 0.88916
1739.33; 1607.700; 1525.100; 2113.700; 0.85284
1743.02; 1576.100; 1493.200; 2053.800; 0.83010
1746.72; 1574.500; 1494.300; 2031.700; 0.82612
1750.41; 1581.200; 1502.900; 2014.600; 0.81525
1754.10; 1592.100; 1515.500; 2011.500; 0.81125

