
Integration time [ms]:  10.000
Averaging Nr. [scans]: 10
Smoothing Nr. [pixels]: 0
Data measured with spectrometer [name]: 1911294U1
Wave   ;Sample   ;Dark     ;Reference;Absorbance
[nm]   ;[counts] ;[counts] ;[counts] ;[A.U]

 860.61; 1626.300; 1551.700; 1907.800; 0.67883
 864.82; 1581.500; 1505.600; 1955.500; 0.77287
 869.02; 1587.800; 1514.900; 2034.000; 0.85252
 873.23; 1614.800; 1530.300; 2122.800; 0.84583
 877.43; 1571.800; 1494.800; 2149.500; 0.92955
 881.63; 1614.700; 1530.800; 2256.000; 0.93670
 885.83; 1585.000; 1499.600; 2300.600; 0.97217
 890.03; 1591.300; 1501.000; 2363.200; 0.97992
 894.23; 1593.800; 1498.400; 2434.200; 0.99163
 898.42; 1579.100; 1490.200; 2489.500; 1.05079
 902.62; 1622.000; 1522.400; 2605.100; 1.03625
 906.81; 1587.900; 1488.700; 2644.500; 1.06637
 911.00; 1596.800; 1494.400; 2732.000; 1.08228
 915.19; 1609.200; 1503.000; 2840.700; 1.10023
 919.38; 1658.200; 1541.400; 2988.000; 1.09291
 923.57; 1596.600; 1477.600; 3060.100; 1.12380
 927.76; 1641.200; 1511.200; 3297.300; 1.13796
 931.94; 1632.000; 1493.300; 3511.600; 1.16291
 936.13; 1661.900; 1516.000; 3764.700; 1.18788
 940.31; 1639.600; 1484.900; 3931.100; 1.19900
 944.49; 1709.200; 1547.000; 4163.000; 1.20759
 948.67; 1690.400; 1518.900; 4297.000; 1.20948
 952.85; 1666.200; 1493.400; 4427.000; 1.22986
 957.03; 1686.800; 1501.100; 4604.000; 1.22296
 961.21; 1704.900; 1518.200; 4778.500; 1.24211
 965.38; 1700.500; 1507.600; 4921.400; 1.24791
 969.55; 1701.300; 1505.800; 5072.200; 1.26108
 973.73; 1726.500; 1520.500; 5253.800; 1.25823
 977.90; 1728.000; 1511.100; 5413.200; 1.25504
 982.06; 1739.300; 1518.800; 5592.700; 1.26660
 986.23; 1735.300; 1506.000; 5748.000; 1.26717
 990.40; 1753.500; 1519.400; 5941.100; 1.27619
 994.56; 1780.700; 1538.400; 6129.700; 1.27758
 998.72; 1786.500; 1541.900; 6290.500; 1.28811
1002.88; 1763.300; 1510.200; 6415.300; 1.28736
1007.04; 1782.200; 1529.400; 6579.000; 1.30048
1011.20; 1784.300; 1519.900; 6717.500; 1.29354
1015.36; 1812.800; 1543.200; 6867.300; 1.29553
1019.51; 1780.200; 1510.000; 6947.400; 1.30371
1023.67; 1800.400; 1530.900; 7080.200; 1.31368
1027.82; 1794.700; 1512.800; 7172.800; 1.30272
1031.97; 1814.000; 1525.500; 7291.600; 1.30074
1036.12; 1809.400; 1523.900; 7384.200; 1.31231
1040.27; 1809.900; 1520.100; 7490.500; 1.31391
1044.41; 1823.000; 1522.700; 7585.300; 1.30510
1048.56; 1833.000; 1534.900; 7704.000; 1.31586
1052.70; 1825.100; 1519.500; 7789.500; 1.31211
1056.84; 1842.300; 1529.400; 7905.400; 1.30914
1060.98; 1805.100; 1501.100; 7985.000; 1.32896
1065.11; 1831.600; 1513.900; 8119.500; 1.31790
1069.25; 1848.700; 1526.700; 8264.000; 1.32063
1073.38; 1861.200; 1527.800; 8408.100; 1.31464
1077.52; 1877.800; 1546.500; 8548.800; 1.32502
1081.65; 1868.900; 1532.900; 8683.900; 1.32803
1085.77; 1871.400; 1527.000; 8829.600; 1.32641
1089.90; 1887.000; 1533.700; 8986.900; 1.32420
1094.03; 1859.400; 1500.400; 9113.600; 1.32647
1098.15; 1908.100; 1546.400; 9322.700; 1.33242
1102.27; 1855.200; 1489.800; 9441.600; 1.33770
1106.39; 1900.100; 1527.600; 9661.400; 1.33917
1110.51; 1936.800; 1551.400; 9878.200; 1.33457
1114.63; 1893.300; 1500.800;10067.700; 1.33898
1118.74; 1959.700; 1553.000;10360.700; 1.33559
1122.85; 1938.800; 1530.700;10522.800; 1.34309
1126.96; 1917.400; 1503.600;10642.400; 1.34410
1131.07; 1976.400; 1554.700;10786.500; 1.34028
1135.18; 1922.600; 1504.600;10802.100; 1.34719
1139.29; 1941.200; 1516.000;10868.600; 1.34234
1143.39; 1965.600; 1538.200;10912.400; 1.34110
1147.49; 1939.300; 1518.500;10897.900; 1.34810
1151.59; 1940.900; 1515.000;10914.000; 1.34377
1155.69; 1974.300; 1541.600;10966.800; 1.33810
1159.78; 1929.000; 1502.700;10951.200; 1.34565
1163.88; 1969.300; 1536.300;11019.900; 1.34049
1167.97; 1967.800; 1537.000;11049.100; 1.34400
1172.06; 1949.200; 1514.600;11052.300; 1.34135
1176.15; 1941.800; 1511.400;11073.900; 1.34670
1180.23; 1989.400; 1549.600;11155.900; 1.33930
1184.32; 1929.100; 1494.700;11140.100; 1.34643
1188.40; 1956.700; 1514.000;11201.700; 1.34011
1192.48; 1958.800; 1515.300;11260.500; 1.34190
1196.56; 1963.300; 1521.200;11309.800; 1.34520
1200.64; 1986.900; 1534.600;11380.300; 1.33782
1204.71; 1959.900; 1514.200;11415.100; 1.34663
1208.78; 1976.000; 1522.400;11476.100; 1.34131
1212.85; 2002.200; 1547.900;11559.600; 1.34317
1216.92; 1923.300; 1476.200;11533.500; 1.35208
1220.99; 1990.500; 1534.300;11668.800; 1.34665
1225.05; 1985.800; 1527.500;11719.100; 1.34709
1229.11; 1962.600; 1506.200;11777.200; 1.35227
1233.17; 2003.800; 1537.300;11867.500; 1.34526
1237.23; 2002.700; 1535.100;11935.000; 1.34715
1241.29; 2005.300; 1531.200;11992.800; 1.34373
1245.34; 2036.300; 1560.000;12107.000; 1.34525
1249.39; 1972.100; 1500.000;12117.900; 1.35200
1253.44; 1998.800; 1518.900;12212.500; 1.34797
1257.49; 2037.900; 1552.800;12334.500; 1.34686
1261.53; 2002.200; 1518.900;12369.900; 1.35125
1265.58; 2011.500; 1525.900;12452.600; 1.35221
1269.62; 2015.600; 1519.600;12529.800; 1.34631
1273.65; 2016.700; 1519.900;12603.400; 1.34850
1277.69; 2012.500; 1518.000;12681.800; 1.35365
1281.72; 2032.400; 1530.100;12773.400; 1.34993
1285.76; 2038.600; 1529.900;12851.500; 1.34745
1289.79; 2029.600; 1520.800;12909.400; 1.34992
1293.81; 2021.700; 1511.100;12974.600; 1.35124
1297.84; 1997.500; 1490.200;13004.900; 1.35599
1301.86; 2061.300; 1546.100;13137.300; 1.35215
1305.88; 2032.200; 1520.800;13163.800; 1.35730
1309.90; 2057.900; 1541.300;13243.300; 1.35511
1313.92; 2013.200; 1497.800;13236.900; 1.35749
1317.93; 2049.100; 1527.400;13321.700; 1.35425
1321.94; 2041.300; 1516.400;13349.300; 1.35301
1325.95; 2043.500; 1515.800;13392.300; 1.35230
1329.96; 2058.300; 1527.200;13449.200; 1.35117
1333.96; 2061.100; 1523.500;13501.700; 1.34793
1337.96; 2060.000; 1525.700;13575.100; 1.35318
1341.96; 2071.300; 1530.100;13604.900; 1.34852
1345.96; 2042.200; 1514.800;13535.100; 1.35778
1349.95; 2023.500; 1504.900;13357.000; 1.35896
1353.95; 2012.700; 1500.800;13080.300; 1.35450
1357.94; 2014.700; 1519.000;12810.900; 1.35755
1361.92; 2010.100; 1525.200;12577.700; 1.35781
1365.91; 1984.600; 1509.100;12495.800; 1.36372
1369.89; 1981.200; 1500.900;12522.200; 1.36072
1373.87; 1967.300; 1483.400;12502.700; 1.35740
1377.85; 2013.500; 1541.800;12256.400; 1.35631
1381.82; 1948.300; 1495.800;11839.800; 1.35907
1385.80; 2000.100; 1542.900;11856.600; 1.35331
1389.77; 1988.300; 1524.900;11869.500; 1.34876
1393.74; 1956.300; 1509.900;11804.200; 1.36287
1397.70; 2012.000; 1552.300;11918.000; 1.35312
1401.66; 1989.100; 1522.100;11986.800; 1.35041
1405.62; 1967.900; 1502.000;12055.500; 1.35510
1409.58; 2002.600; 1528.700;12203.600; 1.35268
1413.54; 1992.500; 1519.400;12293.200; 1.35742
1417.49; 1956.000; 1476.800;12292.900; 1.35355
1421.44; 2008.400; 1523.100;12384.600; 1.34988
1425.39; 1993.500; 1510.500;12382.800; 1.35237
1429.33; 2011.400; 1525.700;12395.900; 1.34987
1433.27; 2004.900; 1523.700;12370.200; 1.35296
1437.21; 1984.500; 1502.800;12323.500; 1.35148
1441.15; 2028.800; 1543.700;12339.600; 1.34743
1445.09; 2012.300; 1531.000;12292.800; 1.34947
1449.02; 1964.000; 1489.700;12200.500; 1.35377
1452.95; 2008.700; 1529.700;12230.100; 1.34906
1456.87; 2006.300; 1524.100;12175.900; 1.34420
1460.80; 1991.000; 1510.600;12112.200; 1.34377
1464.72; 1975.100; 1502.500;12023.800; 1.34758
1468.64; 1970.900; 1502.300;11961.600; 1.34870
1472.55; 1991.000; 1518.100;11913.700; 1.34208
1476.47; 1994.000; 1531.300;11884.300; 1.34977
1480.38; 1988.600; 1517.300;11801.000; 1.33885
1484.28; 1996.700; 1535.000;11762.600; 1.34541
1488.19; 1979.600; 1522.200;11690.100; 1.34694
1492.09; 1949.400; 1489.900;11596.700; 1.34233
1495.99; 1957.000; 1506.600;11539.600; 1.34783
1499.89; 1968.400; 1513.300;11504.200; 1.34150
1503.78; 1968.300; 1515.200;11427.600; 1.33998
1507.67; 1991.200; 1539.800;11381.400; 1.33850
1511.56; 1943.600; 1498.300;11268.800; 1.34126
1515.44; 1973.000; 1525.700;11237.600; 1.33671
1519.33; 1951.300; 1515.200;11135.600; 1.34361
1523.21; 1962.600; 1523.900;11078.700; 1.33805
1527.08; 1951.400; 1519.400;10990.300; 1.34091
1530.96; 1935.200; 1500.300;10886.000; 1.33408
1534.83; 1978.300; 1544.300;10845.200; 1.33104
1538.70; 1936.300; 1508.600;10715.900; 1.33299
1542.56; 1914.400; 1500.900;10619.900; 1.34347
1546.42; 1932.200; 1517.300;10554.500; 1.33809
1550.28; 1926.200; 1513.400;10453.100; 1.33558
1554.14; 1922.200; 1508.800;10345.500; 1.32992
1557.99; 1929.000; 1525.700;10266.900; 1.33594
1561.84; 1900.300; 1498.400;10122.900; 1.33162
1565.69; 1909.100; 1516.200;10052.800; 1.33700
1569.54; 1899.700; 1503.300; 9933.900; 1.32772
1573.38; 1890.000; 1501.700; 9824.400; 1.33110
1577.22; 1908.000; 1527.000; 9752.100; 1.33422
1581.05; 1891.900; 1512.400; 9625.200; 1.32996
1584.89; 1898.800; 1524.900; 9522.100; 1.33018
1588.72; 1892.100; 1517.700; 9409.100; 1.32382
1592.54; 1868.600; 1506.200; 9274.600; 1.33114
1596.37; 1881.800; 1517.200; 9177.600; 1.32243
1600.19; 1871.900; 1510.100; 9050.400; 1.31892
1604.01; 1840.700; 1486.400; 8899.400; 1.32062
1607.82; 1851.600; 1509.800; 8796.900; 1.32878
1611.63; 1821.400; 1480.100; 8624.900; 1.32085
1615.44; 1892.300; 1553.300; 8575.400; 1.31627
1619.25; 1817.300; 1486.200; 8361.300; 1.31732
1623.05; 1804.700; 1479.000; 8208.600; 1.31517
1626.85; 1833.600; 1513.000; 8103.300; 1.31294
1630.64; 1842.900; 1524.000; 7969.700; 1.30562
1634.44; 1810.500; 1504.600; 7800.200; 1.31346
1638.23; 1813.000; 1503.300; 7652.600; 1.29788
1642.01; 1805.200; 1506.800; 7500.000; 1.30286
1645.80; 1790.900; 1499.800; 7336.400; 1.30212
1649.58; 1787.100; 1507.600; 7165.100; 1.30624
1653.35; 1834.100; 1554.000; 7043.000; 1.29218
1657.13; 1754.100; 1486.500; 6816.300; 1.29922
1660.90; 1766.300; 1500.200; 6658.700; 1.28748
1664.67; 1741.200; 1492.900; 6464.500; 1.30152
1668.43; 1755.200; 1506.200; 6271.300; 1.28187
1672.19; 1761.100; 1522.100; 6011.600; 1.27380
1675.95; 1712.900; 1493.800; 5613.400; 1.27421
1679.70; 1740.200; 1530.900; 5235.900; 1.24802
1683.46; 1684.800; 1497.800; 4742.900; 1.23939
1687.20; 1678.500; 1511.400; 4295.600; 1.22172
1690.95; 1658.000; 1504.400; 3867.300; 1.18705
1694.69; 1649.100; 1514.400; 3526.700; 1.17433
1698.43; 1606.000; 1482.500; 3185.600; 1.13957
1702.16; 1616.500; 1497.600; 2968.200; 1.09231
1705.89; 1606.100; 1499.300; 2779.100; 1.07857
1709.62; 1591.500; 1493.100; 2618.100; 1.05816
1713.35; 1627.600; 1522.600; 2525.400; 0.98003
1717.07; 1582.000; 1492.000; 2393.400; 1.00068
1720.79; 1604.400; 1513.300; 2338.300; 0.95694
1724.50; 1602.500; 1514.000; 2272.300; 0.93290
1728.21; 1579.600; 1499.400; 2201.400; 0.94216
1731.92; 1580.100; 1495.900; 2152.500; 0.89199
1735.63; 1564.900; 1483.800; 2109.800; 0.88755
1739.33; 1610.800; 1525.100; 2113.700; 0.83684
1743.02; 1576.200; 1493.200; 2053.800; 0.82957
1746.72; 1575.300; 1494.300; 2031.700; 0.82181
1750.41; 1580.500; 1502.900; 2014.600; 0.81915
1754.10; 1592.800; 1515.500; 2011.500; 0.80730

