
Integration time [ms]:  10.000
Averaging Nr. [scans]: 10
Smoothing Nr. [pixels]: 0
Data measured with spectrometer [name]: 1911294U1
Wave   ;Sample   ;Dark     ;Reference;Absorbance
[nm]   ;[counts] ;[counts] ;[counts] ;[A.U]

 860.61; 1625.200; 1551.700; 1907.800; 0.68528
 864.82; 1576.400; 1505.600; 1955.500; 0.80308
 869.02; 1589.600; 1514.900; 2034.000; 0.84193
 873.23; 1612.400; 1530.300; 2122.800; 0.85835
 877.43; 1573.500; 1494.800; 2149.500; 0.92007
 881.63; 1610.900; 1530.800; 2256.000; 0.95683
 885.83; 1594.400; 1499.600; 2300.600; 0.92682
 890.03; 1592.000; 1501.000; 2363.200; 0.97657
 894.23; 1595.000; 1498.400; 2434.200; 0.98621
 898.42; 1583.700; 1490.200; 2489.500; 1.02888
 902.62; 1625.800; 1522.400; 2605.100; 1.01999
 906.81; 1591.500; 1488.700; 2644.500; 1.05089
 911.00; 1601.100; 1494.400; 2732.000; 1.06442
 915.19; 1612.200; 1503.000; 2840.700; 1.08814
 919.38; 1659.100; 1541.400; 2988.000; 1.08957
 923.57; 1593.800; 1477.600; 3060.100; 1.13414
 927.76; 1642.200; 1511.200; 3297.300; 1.13463
 931.94; 1630.100; 1493.300; 3511.600; 1.16890
 936.13; 1664.300; 1516.000; 3764.700; 1.18079
 940.31; 1634.900; 1484.900; 3931.100; 1.21240
 944.49; 1713.500; 1547.000; 4163.000; 1.19622
 948.67; 1692.700; 1518.900; 4297.000; 1.20370
 952.85; 1663.500; 1493.400; 4427.000; 1.23670
 957.03; 1683.000; 1501.100; 4604.000; 1.23194
 961.21; 1707.300; 1518.200; 4778.500; 1.23657
 965.38; 1702.800; 1507.600; 4921.400; 1.24276
 969.55; 1704.300; 1505.800; 5072.200; 1.25447
 973.73; 1729.100; 1520.500; 5253.800; 1.25278
 977.90; 1718.400; 1511.100; 5413.200; 1.27470
 982.06; 1737.900; 1518.800; 5592.700; 1.26937
 986.23; 1734.900; 1506.000; 5748.000; 1.26792
 990.40; 1756.300; 1519.400; 5941.100; 1.27102
 994.56; 1779.400; 1538.400; 6129.700; 1.27992
 998.72; 1784.100; 1541.900; 6290.500; 1.29239
1002.88; 1760.400; 1510.200; 6415.300; 1.29236
1007.04; 1784.800; 1529.400; 6579.000; 1.29604
1011.20; 1784.000; 1519.900; 6717.500; 1.29403
1015.36; 1814.100; 1543.200; 6867.300; 1.29344
1019.51; 1781.800; 1510.000; 6947.400; 1.30114
1023.67; 1799.200; 1530.900; 7080.200; 1.31562
1027.82; 1792.300; 1512.800; 7172.800; 1.30643
1031.97; 1810.100; 1525.500; 7291.600; 1.30665
1036.12; 1811.000; 1523.900; 7384.200; 1.30989
1040.27; 1816.400; 1520.100; 7490.500; 1.30427
1044.41; 1818.400; 1522.700; 7585.300; 1.31181
1048.56; 1836.700; 1534.900; 7704.000; 1.31050
1052.70; 1823.200; 1519.500; 7789.500; 1.31482
1056.84; 1837.100; 1529.400; 7905.400; 1.31642
1060.98; 1810.300; 1501.100; 7985.000; 1.32160
1065.11; 1830.800; 1513.900; 8119.500; 1.31899
1069.25; 1846.800; 1526.700; 8264.000; 1.32320
1073.38; 1854.000; 1527.800; 8408.100; 1.32412
1077.52; 1878.800; 1546.500; 8548.800; 1.32371
1081.65; 1870.100; 1532.900; 8683.900; 1.32648
1085.77; 1871.900; 1527.000; 8829.600; 1.32578
1089.90; 1880.800; 1533.700; 8986.900; 1.33189
1094.03; 1854.900; 1500.400; 9113.600; 1.33195
1098.15; 1906.200; 1546.400; 9322.700; 1.33471
1102.27; 1853.900; 1489.800; 9441.600; 1.33924
1106.39; 1900.100; 1527.600; 9661.400; 1.33917
1110.51; 1935.600; 1551.400; 9878.200; 1.33592
1114.63; 1894.600; 1500.800;10067.700; 1.33755
1118.74; 1958.000; 1553.000;10360.700; 1.33741
1122.85; 1936.700; 1530.700;10522.800; 1.34534
1126.96; 1922.000; 1503.600;10642.400; 1.33930
1131.07; 1977.500; 1554.700;10786.500; 1.33915
1135.18; 1921.700; 1504.600;10802.100; 1.34813
1139.29; 1938.900; 1516.000;10868.600; 1.34469
1143.39; 1964.200; 1538.200;10912.400; 1.34252
1147.49; 1939.900; 1518.500;10897.900; 1.34748
1151.59; 1942.000; 1515.000;10914.000; 1.34265
1155.69; 1966.600; 1541.600;10966.800; 1.34590
1159.78; 1927.700; 1502.700;10951.200; 1.34697
1163.88; 1970.100; 1536.300;11019.900; 1.33968
1167.97; 1969.800; 1537.000;11049.100; 1.34199
1172.06; 1942.900; 1514.600;11052.300; 1.34770
1176.15; 1942.300; 1511.400;11073.900; 1.34619
1180.23; 1986.000; 1549.600;11155.900; 1.34267
1184.32; 1931.400; 1494.700;11140.100; 1.34414
1188.40; 1954.500; 1514.000;11201.700; 1.34227
1192.48; 1956.500; 1515.300;11260.500; 1.34416
1196.56; 1962.000; 1521.200;11309.800; 1.34648
1200.64; 1983.600; 1534.600;11380.300; 1.34100
1204.71; 1958.900; 1514.200;11415.100; 1.34761
1208.78; 1971.900; 1522.400;11476.100; 1.34525
1212.85; 1997.900; 1547.900;11559.600; 1.34730
1216.92; 1926.200; 1476.200;11533.500; 1.34927
1220.99; 1989.500; 1534.300;11668.800; 1.34760
1225.05; 1982.000; 1527.500;11719.100; 1.35071
1229.11; 1968.300; 1506.200;11777.200; 1.34688
1233.17; 2000.500; 1537.300;11867.500; 1.34834
1237.23; 2003.200; 1535.100;11935.000; 1.34669
1241.29; 2003.300; 1531.200;11992.800; 1.34556
1245.34; 2028.800; 1560.000;12107.000; 1.35214
1249.39; 1976.000; 1500.000;12117.900; 1.34843
1253.44; 1998.300; 1518.900;12212.500; 1.34843
1257.49; 2037.000; 1552.800;12334.500; 1.34766
1261.53; 1997.400; 1518.900;12369.900; 1.35559
1265.58; 2014.000; 1525.900;12452.600; 1.34998
1269.62; 2007.400; 1519.600;12529.800; 1.35355
1273.65; 2015.300; 1519.900;12603.400; 1.34972
1277.69; 2010.800; 1518.000;12681.800; 1.35514
1281.72; 2029.900; 1530.100;12773.400; 1.35210
1285.76; 2028.400; 1529.900;12851.500; 1.35624
1289.79; 2030.700; 1520.800;12909.400; 1.34899
1293.81; 2022.200; 1511.100;12974.600; 1.35081
1297.84; 1997.500; 1490.200;13004.900; 1.35599
1301.86; 2062.900; 1546.100;13137.300; 1.35081
1305.88; 2032.700; 1520.800;13163.800; 1.35688
1309.90; 2058.800; 1541.300;13243.300; 1.35435
1313.92; 2016.500; 1497.800;13236.900; 1.35472
1317.93; 2054.500; 1527.400;13321.700; 1.34978
1321.94; 2041.400; 1516.400;13349.300; 1.35293
1325.95; 2042.600; 1515.800;13392.300; 1.35304
1329.96; 2061.000; 1527.200;13449.200; 1.34897
1333.96; 2057.300; 1523.500;13501.700; 1.35101
1337.96; 2060.600; 1525.700;13575.100; 1.35269
1341.96; 2068.000; 1530.100;13604.900; 1.35118
1345.96; 2043.800; 1514.800;13535.100; 1.35646
1349.95; 2025.800; 1504.900;13357.000; 1.35704
1353.95; 2007.700; 1500.800;13080.300; 1.35877
1357.94; 2012.200; 1519.000;12810.900; 1.35974
1361.92; 2009.500; 1525.200;12577.700; 1.35835
1365.91; 1984.800; 1509.100;12495.800; 1.36353
1369.89; 1977.900; 1500.900;12522.200; 1.36371
1373.87; 1962.300; 1483.400;12502.700; 1.36191
1377.85; 2013.900; 1541.800;12256.400; 1.35594
1381.82; 1946.500; 1495.800;11839.800; 1.36080
1385.80; 1999.900; 1542.900;11856.600; 1.35350
1389.77; 1991.000; 1524.900;11869.500; 1.34623
1393.74; 1964.900; 1509.900;11804.200; 1.35459
1397.70; 2008.700; 1552.300;11918.000; 1.35625
1401.66; 1985.000; 1522.100;11986.800; 1.35424
1405.62; 1965.200; 1502.000;12055.500; 1.35763
1409.58; 2000.800; 1528.700;12203.600; 1.35433
1413.54; 1997.300; 1519.400;12293.200; 1.35303
1417.49; 1952.700; 1476.800;12292.900; 1.35655
1421.44; 2009.100; 1523.100;12384.600; 1.34925
1425.39; 1989.800; 1510.500;12382.800; 1.35571
1429.33; 2011.600; 1525.700;12395.900; 1.34969
1433.27; 2003.300; 1523.700;12370.200; 1.35441
1437.21; 1980.400; 1502.800;12323.500; 1.35519
1441.15; 2026.700; 1543.700;12339.600; 1.34931
1445.09; 2006.600; 1531.000;12292.800; 1.35464
1449.02; 1969.700; 1489.700;12200.500; 1.34858
1452.95; 2009.500; 1529.700;12230.100; 1.34834
1456.87; 2005.300; 1524.100;12175.900; 1.34510
1460.80; 1987.600; 1510.600;12112.200; 1.34685
1464.72; 1968.900; 1502.500;12023.800; 1.35331
1468.64; 1972.600; 1502.300;11961.600; 1.34713
1472.55; 1983.400; 1518.100;11913.700; 1.34912
1476.47; 1999.700; 1531.300;11884.300; 1.34445
1480.38; 1988.000; 1517.300;11801.000; 1.33941
1484.28; 1997.400; 1535.000;11762.600; 1.34476
1488.19; 1985.400; 1522.200;11690.100; 1.34146
1492.09; 1942.700; 1489.900;11596.700; 1.34871
1495.99; 1961.900; 1506.600;11539.600; 1.34313
1499.89; 1968.100; 1513.300;11504.200; 1.34178
1503.78; 1965.100; 1515.200;11427.600; 1.34306
1507.67; 1986.300; 1539.800;11381.400; 1.34324
1511.56; 1944.500; 1498.300;11268.800; 1.34039
1515.44; 1970.700; 1525.700;11237.600; 1.33894
1519.33; 1952.400; 1515.200;11135.600; 1.34251
1523.21; 1959.600; 1523.900;11078.700; 1.34103
1527.08; 1950.500; 1519.400;10990.300; 1.34181
1530.96; 1930.700; 1500.300;10886.000; 1.33859
1534.83; 1973.100; 1544.300;10845.200; 1.33627
1538.70; 1932.200; 1508.600;10715.900; 1.33718
1542.56; 1914.500; 1500.900;10619.900; 1.34337
1546.42; 1934.500; 1517.300;10554.500; 1.33569
1550.28; 1926.400; 1513.400;10453.100; 1.33537
1554.14; 1923.300; 1508.800;10345.500; 1.32877
1557.99; 1928.800; 1525.700;10266.900; 1.33616
1561.84; 1894.400; 1498.400;10122.900; 1.33804
1565.69; 1909.000; 1516.200;10052.800; 1.33711
1569.54; 1895.800; 1503.300; 9933.900; 1.33202
1573.38; 1889.300; 1501.700; 9824.400; 1.33188
1577.22; 1915.300; 1527.000; 9752.100; 1.32597
1581.05; 1890.100; 1512.400; 9625.200; 1.33202
1584.89; 1901.700; 1524.900; 9522.100; 1.32683
1588.72; 1894.000; 1517.700; 9409.100; 1.32162
1592.54; 1871.200; 1506.200; 9274.600; 1.32804
1596.37; 1883.000; 1517.200; 9177.600; 1.32101
1600.19; 1866.400; 1510.100; 9050.400; 1.32557
1604.01; 1842.300; 1486.400; 8899.400; 1.31867
1607.82; 1853.100; 1509.800; 8796.900; 1.32688
1611.63; 1821.200; 1480.100; 8624.900; 1.32111
1615.44; 1892.500; 1553.300; 8575.400; 1.31601
1619.25; 1810.300; 1486.200; 8361.300; 1.32660
1623.05; 1804.900; 1479.000; 8208.600; 1.31490
1626.85; 1834.800; 1513.000; 8103.300; 1.31132
1630.64; 1844.400; 1524.000; 7969.700; 1.30358
1634.44; 1813.600; 1504.600; 7800.200; 1.30908
1638.23; 1806.000; 1503.300; 7652.600; 1.30781
1642.01; 1801.900; 1506.800; 7500.000; 1.30769
1645.80; 1788.600; 1499.800; 7336.400; 1.30556
1649.58; 1787.500; 1507.600; 7165.100; 1.30562
1653.35; 1832.400; 1554.000; 7043.000; 1.29482
1657.13; 1752.500; 1486.500; 6816.300; 1.30183
1660.90; 1764.900; 1500.200; 6658.700; 1.28977
1664.67; 1742.300; 1492.900; 6464.500; 1.29960
1668.43; 1751.400; 1506.200; 6271.300; 1.28855
1672.19; 1760.300; 1522.100; 6011.600; 1.27526
1675.95; 1713.700; 1493.800; 5613.400; 1.27263
1679.70; 1740.700; 1530.900; 5235.900; 1.24698
1683.46; 1689.200; 1497.800; 4742.900; 1.22929
1687.20; 1679.700; 1511.400; 4295.600; 1.21862
1690.95; 1655.900; 1504.400; 3867.300; 1.19303
1694.69; 1653.000; 1514.400; 3526.700; 1.16193
1698.43; 1605.800; 1482.500; 3185.600; 1.14028
1702.16; 1615.800; 1497.600; 2968.200; 1.09488
1705.89; 1609.300; 1499.300; 2779.100; 1.06575
1709.62; 1591.700; 1493.100; 2618.100; 1.05728
1713.35; 1624.300; 1522.600; 2525.400; 0.99389
1717.07; 1586.100; 1492.000; 2393.400; 0.98133
1720.79; 1603.200; 1513.300; 2338.300; 0.96269
1724.50; 1605.100; 1514.000; 2272.300; 0.92032
1728.21; 1582.800; 1499.400; 2201.400; 0.92517
1731.92; 1576.300; 1495.900; 2152.500; 0.91204
1735.63; 1563.700; 1483.800; 2109.800; 0.89403
1739.33; 1604.500; 1525.100; 2113.700; 0.87000
1743.02; 1577.200; 1493.200; 2053.800; 0.82437
1746.72; 1577.700; 1494.300; 2031.700; 0.80913
1750.41; 1584.900; 1502.900; 2014.600; 0.79520
1754.10; 1588.600; 1515.500; 2011.500; 0.83156

