
Integration time [ms]:  10.000
Averaging Nr. [scans]: 10
Smoothing Nr. [pixels]: 0
Data measured with spectrometer [name]: 1911294U1
Wave   ;Sample   ;Dark     ;Reference;Absorbance
[nm]   ;[counts] ;[counts] ;[counts] ;[A.U]

 860.61; 1624.100; 1551.700; 1907.800; 0.69183
 864.82; 1576.600; 1505.600; 1955.500; 0.80186
 869.02; 1589.400; 1514.900; 2034.000; 0.84309
 873.23; 1607.400; 1530.300; 2122.800; 0.88563
 877.43; 1566.200; 1494.800; 2149.500; 0.96234
 881.63; 1609.200; 1530.800; 2256.000; 0.96614
 885.83; 1589.000; 1499.600; 2300.600; 0.95229
 890.03; 1586.100; 1501.000; 2363.200; 1.00568
 894.23; 1592.000; 1498.400; 2434.200; 0.99991
 898.42; 1575.500; 1490.200; 2489.500; 1.06875
 902.62; 1616.200; 1522.400; 2605.100; 1.06231
 906.81; 1584.200; 1488.700; 2644.500; 1.08288
 911.00; 1594.700; 1494.400; 2732.000; 1.09128
 915.19; 1604.700; 1503.000; 2840.700; 1.11904
 919.38; 1654.600; 1541.400; 2988.000; 1.10650
 923.57; 1589.100; 1477.600; 3060.100; 1.15207
 927.76; 1631.600; 1511.200; 3297.300; 1.17128
 931.94; 1623.000; 1493.300; 3511.600; 1.19205
 936.13; 1660.200; 1516.000; 3764.700; 1.19297
 940.31; 1629.200; 1484.900; 3931.100; 1.22923
 944.49; 1702.200; 1547.000; 4163.000; 1.22675
 948.67; 1682.600; 1518.900; 4297.000; 1.22970
 952.85; 1665.100; 1493.400; 4427.000; 1.23263
 957.03; 1675.100; 1501.100; 4604.000; 1.25122
 961.21; 1700.200; 1518.200; 4778.500; 1.25319
 965.38; 1692.900; 1507.600; 4921.400; 1.26536
 969.55; 1695.800; 1505.800; 5072.200; 1.27348
 973.73; 1720.000; 1520.500; 5253.800; 1.27215
 977.90; 1721.000; 1511.100; 5413.200; 1.26929
 982.06; 1730.500; 1518.800; 5592.700; 1.28429
 986.23; 1722.800; 1506.000; 5748.000; 1.29151
 990.40; 1747.500; 1519.400; 5941.100; 1.28746
 994.56; 1775.300; 1538.400; 6129.700; 1.28737
 998.72; 1779.400; 1541.900; 6290.500; 1.30090
1002.88; 1755.600; 1510.200; 6415.300; 1.30077
1007.04; 1777.100; 1529.400; 6579.000; 1.30933
1011.20; 1779.200; 1519.900; 6717.500; 1.30200
1015.36; 1806.400; 1543.200; 6867.300; 1.30596
1019.51; 1770.700; 1510.000; 6947.400; 1.31925
1023.67; 1796.600; 1530.900; 7080.200; 1.31985
1027.82; 1788.700; 1512.800; 7172.800; 1.31206
1031.97; 1803.400; 1525.500; 7291.600; 1.31699
1036.12; 1804.400; 1523.900; 7384.200; 1.31999
1040.27; 1803.600; 1520.100; 7490.500; 1.32345
1044.41; 1810.900; 1522.700; 7585.300; 1.32296
1048.56; 1828.300; 1534.900; 7704.000; 1.32276
1052.70; 1814.600; 1519.500; 7789.500; 1.32730
1056.84; 1828.600; 1529.400; 7905.400; 1.32859
1060.98; 1801.100; 1501.100; 7985.000; 1.33472
1065.11; 1824.200; 1513.900; 8119.500; 1.32813
1069.25; 1842.300; 1526.700; 8264.000; 1.32935
1073.38; 1849.300; 1527.800; 8408.100; 1.33043
1077.52; 1872.000; 1546.500; 8548.800; 1.33269
1081.65; 1858.300; 1532.900; 8683.900; 1.34195
1085.77; 1865.000; 1527.000; 8829.600; 1.33456
1089.90; 1874.400; 1533.700; 8986.900; 1.33997
1094.03; 1849.900; 1500.400; 9113.600; 1.33812
1098.15; 1899.600; 1546.400; 9322.700; 1.34275
1102.27; 1850.600; 1489.800; 9441.600; 1.34320
1106.39; 1894.000; 1527.600; 9661.400; 1.34634
1110.51; 1927.800; 1551.400; 9878.200; 1.34483
1114.63; 1884.400; 1500.800;10067.700; 1.34895
1118.74; 1952.700; 1553.000;10360.700; 1.34313
1122.85; 1929.900; 1530.700;10522.800; 1.35267
1126.96; 1909.400; 1503.600;10642.400; 1.35258
1131.07; 1970.700; 1554.700;10786.500; 1.34619
1135.18; 1911.900; 1504.600;10802.100; 1.35845
1139.29; 1934.300; 1516.000;10868.600; 1.34944
1143.39; 1958.800; 1538.200;10912.400; 1.34806
1147.49; 1931.300; 1518.500;10897.900; 1.35644
1151.59; 1938.000; 1515.000;10914.000; 1.34674
1155.69; 1962.600; 1541.600;10966.800; 1.35001
1159.78; 1919.100; 1502.700;10951.200; 1.35585
1163.88; 1961.000; 1536.300;11019.900; 1.34889
1167.97; 1964.400; 1537.000;11049.100; 1.34744
1172.06; 1938.400; 1514.600;11052.300; 1.35228
1176.15; 1933.900; 1511.400;11073.900; 1.35474
1180.23; 1980.800; 1549.600;11155.900; 1.34788
1184.32; 1923.600; 1494.700;11140.100; 1.35196
1188.40; 1947.000; 1514.000;11201.700; 1.34973
1192.48; 1948.000; 1515.300;11260.500; 1.35260
1196.56; 1954.900; 1521.200;11309.800; 1.35353
1200.64; 1981.800; 1534.600;11380.300; 1.34274
1204.71; 1957.400; 1514.200;11415.100; 1.34907
1208.78; 1969.500; 1522.400;11476.100; 1.34758
1212.85; 1990.300; 1547.900;11559.600; 1.35469
1216.92; 1916.800; 1476.200;11533.500; 1.35844
1220.99; 1985.200; 1534.300;11668.800; 1.35172
1225.05; 1980.000; 1527.500;11719.100; 1.35262
1229.11; 1953.500; 1506.200;11777.200; 1.36101
1233.17; 1992.500; 1537.300;11867.500; 1.35591
1237.23; 1997.400; 1535.100;11935.000; 1.35211
1241.29; 1992.900; 1531.200;11992.800; 1.35524
1245.34; 2026.800; 1560.000;12107.000; 1.35400
1249.39; 1968.200; 1500.000;12117.900; 1.35561
1253.44; 1991.200; 1518.900;12212.500; 1.35491
1257.49; 2025.600; 1552.800;12334.500; 1.35801
1261.53; 1998.100; 1518.900;12369.900; 1.35495
1265.58; 2007.300; 1525.900;12452.600; 1.35598
1269.62; 2000.000; 1519.600;12529.800; 1.36019
1273.65; 2011.800; 1519.900;12603.400; 1.35280
1277.69; 2006.300; 1518.000;12681.800; 1.35913
1281.72; 2025.200; 1530.100;12773.400; 1.35620
1285.76; 2024.100; 1529.900;12851.500; 1.36001
1289.79; 2022.000; 1520.800;12909.400; 1.35646
1293.81; 2008.400; 1511.100;12974.600; 1.36270
1297.84; 1994.200; 1490.200;13004.900; 1.35882
1301.86; 2054.500; 1546.100;13137.300; 1.35792
1305.88; 2027.200; 1520.800;13163.800; 1.36157
1309.90; 2050.700; 1541.300;13243.300; 1.36120
1313.92; 2008.300; 1497.800;13236.900; 1.36164
1317.93; 2039.700; 1527.400;13321.700; 1.36215
1321.94; 2032.100; 1516.400;13349.300; 1.36069
1325.95; 2032.600; 1515.800;13392.300; 1.36137
1329.96; 2055.200; 1527.200;13449.200; 1.35372
1333.96; 2050.300; 1523.500;13501.700; 1.35675
1337.96; 2053.400; 1525.700;13575.100; 1.35858
1341.96; 2061.900; 1530.100;13604.900; 1.35613
1345.96; 2037.200; 1514.800;13535.100; 1.36191
1349.95; 2017.300; 1504.900;13357.000; 1.36419
1353.95; 2003.500; 1500.800;13080.300; 1.36238
1357.94; 2006.800; 1519.000;12810.900; 1.36453
1361.92; 2002.700; 1525.200;12577.700; 1.36449
1365.91; 1978.600; 1509.100;12495.800; 1.36923
1369.89; 1972.800; 1500.900;12522.200; 1.36838
1373.87; 1957.100; 1483.400;12502.700; 1.36665
1377.85; 2010.700; 1541.800;12256.400; 1.35890
1381.82; 1940.600; 1495.800;11839.800; 1.36652
1385.80; 1993.900; 1542.900;11856.600; 1.35924
1389.77; 1976.100; 1524.900;11869.500; 1.36034
1393.74; 1956.400; 1509.900;11804.200; 1.36278
1397.70; 2005.900; 1552.300;11918.000; 1.35893
1401.66; 1978.400; 1522.100;11986.800; 1.36048
1405.62; 1961.100; 1502.000;12055.500; 1.36149
1409.58; 1994.400; 1528.700;12203.600; 1.36026
1413.54; 1987.700; 1519.400;12293.200; 1.36184
1417.49; 1948.900; 1476.800;12292.900; 1.36004
1421.44; 2002.400; 1523.100;12384.600; 1.35528
1425.39; 1983.000; 1510.500;12382.800; 1.36192
1429.33; 2004.100; 1525.700;12395.900; 1.35645
1433.27; 1997.500; 1523.700;12370.200; 1.35969
1437.21; 1974.500; 1502.800;12323.500; 1.36059
1441.15; 2022.400; 1543.700;12339.600; 1.35320
1445.09; 2007.600; 1531.000;12292.800; 1.35373
1449.02; 1960.400; 1489.700;12200.500; 1.35708
1452.95; 2010.100; 1529.700;12230.100; 1.34780
1456.87; 1998.600; 1524.100;12175.900; 1.35119
1460.80; 1985.400; 1510.600;12112.200; 1.34886
1464.72; 1967.500; 1502.500;12023.800; 1.35462
1468.64; 1965.200; 1502.300;11961.600; 1.35402
1472.55; 1976.000; 1518.100;11913.700; 1.35608
1476.47; 1994.200; 1531.300;11884.300; 1.34958
1480.38; 1980.000; 1517.300;11801.000; 1.34685
1484.28; 1990.400; 1535.000;11762.600; 1.35138
1488.19; 1975.500; 1522.200;11690.100; 1.35085
1492.09; 1938.500; 1489.900;11596.700; 1.35275
1495.99; 1956.700; 1506.600;11539.600; 1.34812
1499.89; 1962.500; 1513.300;11504.200; 1.34716
1503.78; 1955.800; 1515.200;11427.600; 1.35213
1507.67; 1978.200; 1539.800;11381.400; 1.35120
1511.56; 1935.700; 1498.300;11268.800; 1.34904
1515.44; 1964.600; 1525.700;11237.600; 1.34494
1519.33; 1951.300; 1515.200;11135.600; 1.34361
1523.21; 1952.900; 1523.900;11078.700; 1.34776
1527.08; 1947.700; 1519.400;10990.300; 1.34464
1530.96; 1925.700; 1500.300;10886.000; 1.34367
1534.83; 1963.100; 1544.300;10845.200; 1.34652
1538.70; 1925.500; 1508.600;10715.900; 1.34410
1542.56; 1913.800; 1500.900;10619.900; 1.34410
1546.42; 1922.400; 1517.300;10554.500; 1.34847
1550.28; 1919.000; 1513.400;10453.100; 1.34322
1554.14; 1913.800; 1508.800;10345.500; 1.33884
1557.99; 1922.400; 1525.700;10266.900; 1.34311
1561.84; 1886.900; 1498.400;10122.900; 1.34634
1565.69; 1903.800; 1516.200;10052.800; 1.34290
1569.54; 1889.600; 1503.300; 9933.900; 1.33893
1573.38; 1880.100; 1501.700; 9824.400; 1.34231
1577.22; 1903.300; 1527.000; 9752.100; 1.33961
1581.05; 1888.900; 1512.400; 9625.200; 1.33341
1584.89; 1898.200; 1524.900; 9522.100; 1.33088
1588.72; 1883.500; 1517.700; 9409.100; 1.33391
1592.54; 1862.700; 1506.200; 9274.600; 1.33827
1596.37; 1881.400; 1517.200; 9177.600; 1.32291
1600.19; 1864.200; 1510.100; 9050.400; 1.32826
1604.01; 1835.900; 1486.400; 8899.400; 1.32655
1607.82; 1846.000; 1509.800; 8796.900; 1.33596
1611.63; 1817.100; 1480.100; 8624.900; 1.32636
1615.44; 1887.800; 1553.300; 8575.400; 1.32207
1619.25; 1811.200; 1486.200; 8361.300; 1.32540
1623.05; 1800.000; 1479.000; 8208.600; 1.32148
1626.85; 1834.100; 1513.000; 8103.300; 1.31226
1630.64; 1835.300; 1524.000; 7969.700; 1.31609
1634.44; 1807.700; 1504.600; 7800.200; 1.31745
1638.23; 1804.400; 1503.300; 7652.600; 1.31011
1642.01; 1797.200; 1506.800; 7500.000; 1.31466
1645.80; 1786.300; 1499.800; 7336.400; 1.30904
1649.58; 1785.200; 1507.600; 7165.100; 1.30921
1653.35; 1825.400; 1554.000; 7043.000; 1.30588
1657.13; 1748.800; 1486.500; 6816.300; 1.30791
1660.90; 1758.300; 1500.200; 6658.700; 1.30074
1664.67; 1740.100; 1492.900; 6464.500; 1.30345
1668.43; 1746.300; 1506.200; 6271.300; 1.29768
1672.19; 1758.200; 1522.100; 6011.600; 1.27910
1675.95; 1708.200; 1493.800; 5613.400; 1.28363
1679.70; 1735.200; 1530.900; 5235.900; 1.25852
1683.46; 1678.500; 1497.800; 4742.900; 1.25427
1687.20; 1674.200; 1511.400; 4295.600; 1.23305
1690.95; 1651.000; 1504.400; 3867.300; 1.20731
1694.69; 1646.100; 1514.400; 3526.700; 1.18411
1698.43; 1602.700; 1482.500; 3185.600; 1.15134
1702.16; 1611.800; 1497.600; 2968.200; 1.10983
1705.89; 1601.900; 1499.300; 2779.100; 1.09599
1709.62; 1587.300; 1493.100; 2618.100; 1.07710
1713.35; 1615.900; 1522.600; 2525.400; 1.03133
1717.07; 1576.500; 1492.000; 2393.400; 1.02806
1720.79; 1599.900; 1513.300; 2338.300; 0.97894
1724.50; 1599.700; 1514.000; 2272.300; 0.94686
1728.21; 1584.000; 1499.400; 2201.400; 0.91897
1731.92; 1575.800; 1495.900; 2152.500; 0.91475
1735.63; 1562.400; 1483.800; 2109.800; 0.90115
1739.33; 1601.500; 1525.100; 2113.700; 0.88673
1743.02; 1571.300; 1493.200; 2053.800; 0.85600
1746.72; 1570.100; 1494.300; 2031.700; 0.85063
1750.41; 1575.700; 1502.900; 2014.600; 0.84688
1754.10; 1589.900; 1515.500; 2011.500; 0.82391

