
Integration time [ms]:  10.000
Averaging Nr. [scans]: 10
Smoothing Nr. [pixels]: 0
Data measured with spectrometer [name]: 1911294U1
Wave   ;Sample   ;Dark     ;Reference;Absorbance
[nm]   ;[counts] ;[counts] ;[counts] ;[A.U]

 860.61; 1615.600; 1551.700; 1907.800; 0.74607
 864.82; 1571.100; 1505.600; 1955.500; 0.83687
 869.02; 1582.300; 1514.900; 2034.000; 0.88659
 873.23; 1606.800; 1530.300; 2122.800; 0.88903
 877.43; 1563.200; 1494.800; 2149.500; 0.98099
 881.63; 1604.400; 1530.800; 2256.000; 0.99358
 885.83; 1582.800; 1499.600; 2300.600; 0.98351
 890.03; 1578.600; 1501.000; 2363.200; 1.04575
 894.23; 1590.100; 1498.400; 2434.200; 1.00881
 898.42; 1575.500; 1490.200; 2489.500; 1.06875
 902.62; 1612.200; 1522.400; 2605.100; 1.08123
 906.81; 1580.600; 1488.700; 2644.500; 1.09957
 911.00; 1589.500; 1494.400; 2732.000; 1.11440
 915.19; 1597.900; 1503.000; 2840.700; 1.14909
 919.38; 1646.100; 1541.400; 2988.000; 1.14040
 923.57; 1582.600; 1477.600; 3060.100; 1.17815
 927.76; 1631.200; 1511.200; 3297.300; 1.17272
 931.94; 1619.200; 1493.300; 3511.600; 1.20496
 936.13; 1652.600; 1516.000; 3764.700; 1.21648
 940.31; 1623.900; 1484.900; 3931.100; 1.24548
 944.49; 1697.300; 1547.000; 4163.000; 1.24068
 948.67; 1676.100; 1518.900; 4297.000; 1.24730
 952.85; 1654.400; 1493.400; 4427.000; 1.26058
 957.03; 1672.700; 1501.100; 4604.000; 1.25725
 961.21; 1691.200; 1518.200; 4778.500; 1.27521
 965.38; 1690.600; 1507.600; 4921.400; 1.27079
 969.55; 1688.900; 1505.800; 5072.200; 1.28954
 973.73; 1714.500; 1520.500; 5253.800; 1.28429
 977.90; 1708.600; 1511.100; 5413.200; 1.29573
 982.06; 1722.600; 1518.800; 5592.700; 1.30081
 986.23; 1716.100; 1506.000; 5748.000; 1.30514
 990.40; 1736.500; 1519.400; 5941.100; 1.30893
 994.56; 1764.000; 1538.400; 6129.700; 1.30860
 998.72; 1770.300; 1541.900; 6290.500; 1.31787
1002.88; 1743.000; 1510.200; 6415.300; 1.32366
1007.04; 1766.900; 1529.400; 6579.000; 1.32759
1011.20; 1767.900; 1519.900; 6717.500; 1.32135
1015.36; 1794.700; 1543.200; 6867.300; 1.32571
1019.51; 1761.300; 1510.000; 6947.400; 1.33520
1023.67; 1783.300; 1530.900; 7080.200; 1.34215
1027.82; 1775.200; 1512.800; 7172.800; 1.33385
1031.97; 1798.500; 1525.500; 7291.600; 1.32472
1036.12; 1788.100; 1523.900; 7384.200; 1.34599
1040.27; 1794.500; 1520.100; 7490.500; 1.33762
1044.41; 1802.300; 1522.700; 7585.300; 1.33612
1048.56; 1811.200; 1534.900; 7704.000; 1.34884
1052.70; 1803.700; 1519.500; 7789.500; 1.34364
1056.84; 1816.800; 1529.400; 7905.400; 1.34606
1060.98; 1788.400; 1501.100; 7985.000; 1.35350
1065.11; 1811.700; 1513.900; 8119.500; 1.34599
1069.25; 1827.400; 1526.700; 8264.000; 1.35035
1073.38; 1843.900; 1527.800; 8408.100; 1.33778
1077.52; 1860.600; 1546.500; 8548.800; 1.34817
1081.65; 1847.700; 1532.900; 8683.900; 1.35633
1085.77; 1852.200; 1527.000; 8829.600; 1.35133
1089.90; 1862.600; 1533.700; 8986.900; 1.35528
1094.03; 1836.300; 1500.400; 9113.600; 1.35536
1098.15; 1886.700; 1546.400; 9322.700; 1.35891
1102.27; 1837.800; 1489.800; 9441.600; 1.35889
1106.39; 1881.700; 1527.600; 9661.400; 1.36117
1110.51; 1913.200; 1551.400; 9878.200; 1.36201
1114.63; 1871.000; 1500.800;10067.700; 1.36439
1118.74; 1932.300; 1553.000;10360.700; 1.36588
1122.85; 1914.000; 1530.700;10522.800; 1.37032
1126.96; 1899.800; 1503.600;10642.400; 1.36297
1131.07; 1953.300; 1554.700;10786.500; 1.36475
1135.18; 1899.600; 1504.600;10802.100; 1.37177
1139.29; 1921.900; 1516.000;10868.600; 1.36251
1143.39; 1940.200; 1538.200;10912.400; 1.36771
1147.49; 1918.100; 1518.500;10897.900; 1.37055
1151.59; 1915.800; 1515.000;10914.000; 1.37015
1155.69; 1949.000; 1541.600;10966.800; 1.36427
1159.78; 1905.400; 1502.700;10951.200; 1.37038
1163.88; 1942.900; 1536.300;11019.900; 1.36781
1167.97; 1949.700; 1537.000;11049.100; 1.36264
1172.06; 1918.700; 1514.600;11052.300; 1.37295
1176.15; 1918.300; 1511.400;11073.900; 1.37108
1180.23; 1965.400; 1549.600;11155.900; 1.36367
1184.32; 1908.000; 1494.700;11140.100; 1.36805
1188.40; 1931.500; 1514.000;11201.700; 1.36556
1192.48; 1934.800; 1515.300;11260.500; 1.36606
1196.56; 1938.000; 1521.200;11309.800; 1.37079
1200.64; 1961.300; 1534.600;11380.300; 1.36312
1204.71; 1935.600; 1514.200;11415.100; 1.37098
1208.78; 1949.000; 1522.400;11476.100; 1.36796
1212.85; 1977.400; 1547.900;11559.600; 1.36754
1216.92; 1901.000; 1476.200;11533.500; 1.37430
1220.99; 1967.000; 1534.300;11668.800; 1.36962
1225.05; 1961.800; 1527.500;11719.100; 1.37045
1229.11; 1942.500; 1506.200;11777.200; 1.37183
1233.17; 1978.900; 1537.300;11867.500; 1.36908
1237.23; 1976.500; 1535.100;11935.000; 1.37220
1241.29; 1976.100; 1531.200;11992.800; 1.37134
1245.34; 2008.200; 1560.000;12107.000; 1.37166
1249.39; 1948.300; 1500.000;12117.900; 1.37447
1253.44; 1973.300; 1518.900;12212.500; 1.37169
1257.49; 2013.700; 1552.800;12334.500; 1.36908
1261.53; 1980.500; 1518.900;12369.900; 1.37120
1265.58; 1987.600; 1525.900;12452.600; 1.37413
1269.62; 1985.300; 1519.600;12529.800; 1.37369
1273.65; 1990.700; 1519.900;12603.400; 1.37184
1277.69; 1988.800; 1518.000;12681.800; 1.37498
1281.72; 2008.800; 1530.100;12773.400; 1.37083
1285.76; 2008.200; 1529.900;12851.500; 1.37421
1289.79; 2003.400; 1520.800;12909.400; 1.37288
1293.81; 1994.600; 1511.100;12974.600; 1.37492
1297.84; 1975.600; 1490.200;13004.900; 1.37515
1301.86; 2034.500; 1546.100;13137.300; 1.37535
1305.88; 2009.800; 1520.800;13163.800; 1.37676
1309.90; 2030.600; 1541.300;13243.300; 1.37868
1313.92; 1984.600; 1497.800;13236.900; 1.38228
1317.93; 2024.700; 1527.400;13321.700; 1.37505
1321.94; 2015.100; 1516.400;13349.300; 1.37525
1325.95; 2016.500; 1515.800;13392.300; 1.37511
1329.96; 2037.800; 1527.200;13449.200; 1.36827
1333.96; 2031.700; 1523.500;13501.700; 1.37236
1337.96; 2034.000; 1525.700;13575.100; 1.37485
1341.96; 2045.000; 1530.100;13604.900; 1.37016
1345.96; 2021.900; 1514.800;13535.100; 1.37482
1349.95; 1999.000; 1504.900;13357.000; 1.37998
1353.95; 1985.100; 1500.800;13080.300; 1.37858
1357.94; 1989.400; 1519.000;12810.900; 1.38030
1361.92; 1987.400; 1525.200;12577.700; 1.37863
1365.91; 1963.200; 1509.100;12495.800; 1.38372
1369.89; 1954.700; 1500.900;12522.200; 1.38537
1373.87; 1943.300; 1483.400;12502.700; 1.37949
1377.85; 1993.600; 1541.800;12256.400; 1.37503
1381.82; 1922.400; 1495.800;11839.800; 1.38467
1385.80; 1981.400; 1542.900;11856.600; 1.37144
1389.77; 1964.100; 1524.900;11869.500; 1.37205
1393.74; 1941.600; 1509.900;11804.200; 1.37741
1397.70; 1991.800; 1552.300;11918.000; 1.37264
1401.66; 1964.700; 1522.100;11986.800; 1.37372
1405.62; 1946.700; 1502.000;12055.500; 1.37533
1409.58; 1982.500; 1528.700;12203.600; 1.37150
1413.54; 1980.100; 1519.400;12293.200; 1.36895
1417.49; 1934.500; 1476.800;12292.900; 1.37349
1421.44; 1982.400; 1523.100;12384.600; 1.37379
1425.39; 1971.900; 1510.500;12382.800; 1.37224
1429.33; 1988.800; 1525.700;12395.900; 1.37056
1433.27; 1984.200; 1523.700;12370.200; 1.37206
1437.21; 1962.600; 1502.800;12323.500; 1.37169
1441.15; 2009.100; 1543.700;12339.600; 1.36543
1445.09; 1993.100; 1531.000;12292.800; 1.36715
1449.02; 1945.800; 1489.700;12200.500; 1.37076
1452.95; 1990.500; 1529.700;12230.100; 1.36589
1456.87; 1982.100; 1524.100;12175.900; 1.36656
1460.80; 1971.700; 1510.600;12112.200; 1.36158
1464.72; 1950.600; 1502.500;12023.800; 1.37069
1468.64; 1950.300; 1502.300;11961.600; 1.36822
1472.55; 1967.500; 1518.100;11913.700; 1.36422
1476.47; 1973.700; 1531.300;11884.300; 1.36925
1480.38; 1967.000; 1517.300;11801.000; 1.35923
1484.28; 1975.000; 1535.000;11762.600; 1.36632
1488.19; 1959.800; 1522.200;11690.100; 1.36615
1492.09; 1927.900; 1489.900;11596.700; 1.36314
1495.99; 1944.300; 1506.600;11539.600; 1.36025
1499.89; 1947.400; 1513.300;11504.200; 1.36201
1503.78; 1945.000; 1515.200;11427.600; 1.36291
1507.67; 1967.300; 1539.800;11381.400; 1.36213
1511.56; 1924.600; 1498.300;11268.800; 1.36020
1515.44; 1952.100; 1525.700;11237.600; 1.35749
1519.33; 1934.200; 1515.200;11135.600; 1.36098
1523.21; 1943.100; 1523.900;11078.700; 1.35780
1527.08; 1932.100; 1519.400;10990.300; 1.36076
1530.96; 1918.500; 1500.300;10886.000; 1.35108
1534.83; 1957.800; 1544.300;10845.200; 1.35205
1538.70; 1914.600; 1508.600;10715.900; 1.35561
1542.56; 1897.000; 1500.900;10619.900; 1.36214
1546.42; 1915.900; 1517.300;10554.500; 1.35550
1550.28; 1907.700; 1513.400;10453.100; 1.35550
1554.14; 1906.000; 1508.800;10345.500; 1.34728
1557.99; 1909.400; 1525.700;10266.900; 1.35758
1561.84; 1879.100; 1498.400;10122.900; 1.35515
1565.69; 1893.100; 1516.200;10052.800; 1.35506
1569.54; 1881.100; 1503.300; 9933.900; 1.34860
1573.38; 1874.500; 1501.700; 9824.400; 1.34879
1577.22; 1896.300; 1527.000; 9752.100; 1.34776
1581.05; 1876.700; 1512.400; 9625.200; 1.34771
1584.89; 1884.200; 1524.900; 9522.100; 1.34748
1588.72; 1873.100; 1517.700; 9409.100; 1.34644
1592.54; 1852.800; 1506.200; 9274.600; 1.35050
1596.37; 1868.800; 1517.200; 9177.600; 1.33820
1600.19; 1856.100; 1510.100; 9050.400; 1.33831
1604.01; 1826.900; 1486.400; 8899.400; 1.33788
1607.82; 1837.700; 1509.800; 8796.900; 1.34681
1611.63; 1808.600; 1480.100; 8624.900; 1.33745
1615.44; 1879.700; 1553.300; 8575.400; 1.33272
1619.25; 1800.300; 1486.200; 8361.300; 1.34021
1623.05; 1786.700; 1479.000; 8208.600; 1.33986
1626.85; 1820.700; 1513.000; 8103.300; 1.33078
1630.64; 1827.700; 1524.000; 7969.700; 1.32683
1634.44; 1796.900; 1504.600; 7800.200; 1.33321
1638.23; 1793.400; 1503.300; 7652.600; 1.32628
1642.01; 1787.300; 1506.800; 7500.000; 1.32973
1645.80; 1776.400; 1499.800; 7336.400; 1.32431
1649.58; 1776.700; 1507.600; 7165.100; 1.32271
1653.35; 1816.300; 1554.000; 7043.000; 1.32069
1657.13; 1743.400; 1486.500; 6816.300; 1.31695
1660.90; 1749.800; 1500.200; 6658.700; 1.31528
1664.67; 1731.600; 1492.900; 6464.500; 1.31864
1668.43; 1739.300; 1506.200; 6271.300; 1.31053
1672.19; 1745.200; 1522.100; 6011.600; 1.30370
1675.95; 1702.900; 1493.800; 5613.400; 1.29450
1679.70; 1726.000; 1530.900; 5235.900; 1.27853
1683.46; 1673.400; 1497.800; 4742.900; 1.26670
1687.20; 1669.100; 1511.400; 4295.600; 1.24687
1690.95; 1651.500; 1504.400; 3867.300; 1.20583
1694.69; 1641.900; 1514.400; 3526.700; 1.19818
1698.43; 1597.000; 1482.500; 3185.600; 1.17243
1702.16; 1600.800; 1497.600; 2968.200; 1.15381
1705.89; 1599.500; 1499.300; 2779.100; 1.10627
1709.62; 1585.600; 1493.100; 2618.100; 1.08501
1713.35; 1614.000; 1522.600; 2525.400; 1.04027
1717.07; 1572.600; 1492.000; 2393.400; 1.04858
1720.79; 1593.500; 1513.300; 2338.300; 1.01228
1724.50; 1596.400; 1514.000; 2272.300; 0.96391
1728.21; 1575.300; 1499.400; 2201.400; 0.96610
1731.92; 1569.100; 1495.900; 2152.500; 0.95279
1735.63; 1557.000; 1483.800; 2109.800; 0.93206
1739.33; 1597.600; 1525.100; 2113.700; 0.90948
1743.02; 1569.900; 1493.200; 2053.800; 0.86386
1746.72; 1565.300; 1494.300; 2031.700; 0.87904
1750.41; 1573.300; 1502.900; 2014.600; 0.86144
1754.10; 1583.600; 1515.500; 2011.500; 0.86233

