
Integration time [ms]:  10.000
Averaging Nr. [scans]: 10
Smoothing Nr. [pixels]: 0
Data measured with spectrometer [name]: 1911294U1
Wave   ;Sample   ;Dark     ;Reference;Absorbance
[nm]   ;[counts] ;[counts] ;[counts] ;[A.U]

 860.61; 1625.500; 1551.700; 1907.800; 0.68352
 864.82; 1573.500; 1505.600; 1955.500; 0.82125
 869.02; 1586.100; 1514.900; 2034.000; 0.86277
 873.23; 1608.800; 1530.300; 2122.800; 0.87782
 877.43; 1564.200; 1494.800; 2149.500; 0.97468
 881.63; 1609.600; 1530.800; 2256.000; 0.96393
 885.83; 1587.300; 1499.600; 2300.600; 0.96063
 890.03; 1585.600; 1501.000; 2363.200; 1.00824
 894.23; 1588.800; 1498.400; 2434.200; 1.01501
 898.42; 1576.300; 1490.200; 2489.500; 1.06469
 902.62; 1617.500; 1522.400; 2605.100; 1.05633
 906.81; 1585.000; 1488.700; 2644.500; 1.07926
 911.00; 1595.300; 1494.400; 2732.000; 1.08869
 915.19; 1604.300; 1503.000; 2840.700; 1.12075
 919.38; 1651.500; 1541.400; 2988.000; 1.11856
 923.57; 1586.700; 1477.600; 3060.100; 1.16152
 927.76; 1634.700; 1511.200; 3297.300; 1.16024
 931.94; 1624.600; 1493.300; 3511.600; 1.18672
 936.13; 1653.900; 1516.000; 3764.700; 1.21237
 940.31; 1631.100; 1484.900; 3931.100; 1.22354
 944.49; 1703.400; 1547.000; 4163.000; 1.22340
 948.67; 1684.000; 1518.900; 4297.000; 1.22600
 952.85; 1662.600; 1493.400; 4427.000; 1.23900
 957.03; 1676.700; 1501.100; 4604.000; 1.24724
 961.21; 1695.800; 1518.200; 4778.500; 1.26381
 965.38; 1693.700; 1507.600; 4921.400; 1.26349
 969.55; 1690.500; 1505.800; 5072.200; 1.28576
 973.73; 1723.100; 1520.500; 5253.800; 1.26545
 977.90; 1713.500; 1511.100; 5413.200; 1.28509
 982.06; 1725.200; 1518.800; 5592.700; 1.29530
 986.23; 1723.600; 1506.000; 5748.000; 1.28991
 990.40; 1741.200; 1519.400; 5941.100; 1.29963
 994.56; 1770.900; 1538.400; 6129.700; 1.29551
 998.72; 1775.200; 1541.900; 6290.500; 1.30865
1002.88; 1749.800; 1510.200; 6415.300; 1.31116
1007.04; 1770.400; 1529.400; 6579.000; 1.32124
1011.20; 1776.500; 1519.900; 6717.500; 1.30655
1015.36; 1802.800; 1543.200; 6867.300; 1.31194
1019.51; 1768.800; 1510.000; 6947.400; 1.32243
1023.67; 1796.500; 1530.900; 7080.200; 1.32001
1027.82; 1782.800; 1512.800; 7172.800; 1.32145
1031.97; 1799.000; 1525.500; 7291.600; 1.32392
1036.12; 1800.800; 1523.900; 7384.200; 1.32560
1040.27; 1799.100; 1520.100; 7490.500; 1.33040
1044.41; 1807.900; 1522.700; 7585.300; 1.32751
1048.56; 1822.300; 1534.900; 7704.000; 1.33174
1052.70; 1812.000; 1519.500; 7789.500; 1.33114
1056.84; 1825.500; 1529.400; 7905.400; 1.33311
1060.98; 1801.200; 1501.100; 7985.000; 1.33457
1065.11; 1822.300; 1513.900; 8119.500; 1.33080
1069.25; 1839.200; 1526.700; 8264.000; 1.33364
1073.38; 1849.300; 1527.800; 8408.100; 1.33043
1077.52; 1867.700; 1546.500; 8548.800; 1.33847
1081.65; 1859.700; 1532.900; 8683.900; 1.34008
1085.77; 1861.500; 1527.000; 8829.600; 1.33908
1089.90; 1870.800; 1533.700; 8986.900; 1.34458
1094.03; 1848.600; 1500.400; 9113.600; 1.33974
1098.15; 1894.300; 1546.400; 9322.700; 1.34932
1102.27; 1842.700; 1489.800; 9441.600; 1.35281
1106.39; 1890.800; 1527.600; 9661.400; 1.35015
1110.51; 1927.800; 1551.400; 9878.200; 1.34483
1114.63; 1882.400; 1500.800;10067.700; 1.35122
1118.74; 1946.800; 1553.000;10360.700; 1.34959
1122.85; 1927.400; 1530.700;10522.800; 1.35540
1126.96; 1905.700; 1503.600;10642.400; 1.35656
1131.07; 1965.900; 1554.700;10786.500; 1.35123
1135.18; 1913.300; 1504.600;10802.100; 1.35696
1139.29; 1928.500; 1516.000;10868.600; 1.35551
1143.39; 1950.100; 1538.200;10912.400; 1.35714
1147.49; 1927.600; 1518.500;10897.900; 1.36035
1151.59; 1927.700; 1515.000;10914.000; 1.35745
1155.69; 1960.500; 1541.600;10966.800; 1.35218
1159.78; 1915.900; 1502.700;10951.200; 1.35920
1163.88; 1957.700; 1536.300;11019.900; 1.35228
1167.97; 1953.800; 1537.000;11049.100; 1.35835
1172.06; 1932.300; 1514.600;11052.300; 1.35858
1176.15; 1926.600; 1511.400;11073.900; 1.36231
1180.23; 1975.300; 1549.600;11155.900; 1.35345
1184.32; 1915.700; 1494.700;11140.100; 1.36004
1188.40; 1941.000; 1514.000;11201.700; 1.35579
1192.48; 1944.100; 1515.300;11260.500; 1.35654
1196.56; 1949.600; 1521.200;11309.800; 1.35887
1200.64; 1974.500; 1534.600;11380.300; 1.34989
1204.71; 1951.700; 1514.200;11415.100; 1.35470
1208.78; 1964.600; 1522.400;11476.100; 1.35237
1212.85; 1989.200; 1547.900;11559.600; 1.35577
1216.92; 1909.300; 1476.200;11533.500; 1.36589
1220.99; 1972.900; 1534.300;11668.800; 1.36373
1225.05; 1972.100; 1527.500;11719.100; 1.36027
1229.11; 1953.800; 1506.200;11777.200; 1.36072
1233.17; 1989.800; 1537.300;11867.500; 1.35849
1237.23; 1986.100; 1535.100;11935.000; 1.36285
1241.29; 1988.200; 1531.200;11992.800; 1.35968
1245.34; 2024.400; 1560.000;12107.000; 1.35624
1249.39; 1960.300; 1500.000;12117.900; 1.36300
1253.44; 1982.800; 1518.900;12212.500; 1.36270
1257.49; 2028.500; 1552.800;12334.500; 1.35535
1261.53; 1990.000; 1518.900;12369.900; 1.36236
1265.58; 2000.700; 1525.900;12452.600; 1.36198
1269.62; 1998.900; 1519.600;12529.800; 1.36119
1273.65; 2002.600; 1519.900;12603.400; 1.36100
1277.69; 1997.400; 1518.000;12681.800; 1.36711
1281.72; 2019.000; 1530.100;12773.400; 1.36167
1285.76; 2020.700; 1529.900;12851.500; 1.36300
1289.79; 2015.100; 1520.800;12909.400; 1.36248
1293.81; 2004.200; 1511.100;12974.600; 1.36638
1297.84; 1985.600; 1490.200;13004.900; 1.36630
1301.86; 2046.900; 1546.100;13137.300; 1.36446
1305.88; 2017.800; 1520.800;13163.800; 1.36971
1309.90; 2042.700; 1541.300;13243.300; 1.36808
1313.92; 1998.900; 1497.800;13236.900; 1.36971
1317.93; 2033.900; 1527.400;13321.700; 1.36709
1321.94; 2024.900; 1516.400;13349.300; 1.36680
1325.95; 2029.400; 1515.800;13392.300; 1.36406
1329.96; 2043.200; 1527.200;13449.200; 1.36370
1333.96; 2045.000; 1523.500;13501.700; 1.36114
1337.96; 2045.400; 1525.700;13575.100; 1.36521
1341.96; 2052.800; 1530.100;13604.900; 1.36363
1345.96; 2028.700; 1514.800;13535.100; 1.36904
1349.95; 2012.700; 1504.900;13357.000; 1.36810
1353.95; 1996.100; 1500.800;13080.300; 1.36882
1357.94; 2001.800; 1519.000;12810.900; 1.36900
1361.92; 1994.000; 1525.200;12577.700; 1.37247
1365.91; 1974.900; 1509.100;12495.800; 1.37267
1369.89; 1967.500; 1500.900;12522.200; 1.37329
1373.87; 1952.700; 1483.400;12502.700; 1.37070
1377.85; 2002.500; 1541.800;12256.400; 1.36656
1381.82; 1935.800; 1495.800;11839.800; 1.37124
1385.80; 1986.100; 1542.900;11856.600; 1.36681
1389.77; 1973.600; 1524.900;11869.500; 1.36276
1393.74; 1950.800; 1509.900;11804.200; 1.36826
1397.70; 1997.700; 1552.300;11918.000; 1.36685
1401.66; 1972.200; 1522.100;11986.800; 1.36642
1405.62; 1953.300; 1502.000;12055.500; 1.36893
1409.58; 1987.600; 1528.700;12203.600; 1.36665
1413.54; 1984.700; 1519.400;12293.200; 1.36464
1417.49; 1946.100; 1476.800;12292.900; 1.36262
1421.44; 1996.900; 1523.100;12384.600; 1.36029
1425.39; 1978.800; 1510.500;12382.800; 1.36580
1429.33; 1999.000; 1525.700;12395.900; 1.36110
1433.27; 1994.300; 1523.700;12370.200; 1.36264
1437.21; 1971.100; 1502.800;12323.500; 1.36373
1441.15; 2015.300; 1543.700;12339.600; 1.35969
1445.09; 2000.900; 1531.000;12292.800; 1.35988
1449.02; 1954.500; 1489.700;12200.500; 1.36256
1452.95; 1996.600; 1529.700;12230.100; 1.36018
1456.87; 1993.100; 1524.100;12175.900; 1.35625
1460.80; 1976.700; 1510.600;12112.200; 1.35689
1464.72; 1962.400; 1502.500;12023.800; 1.35941
1468.64; 1964.700; 1502.300;11961.600; 1.35448
1472.55; 1978.600; 1518.100;11913.700; 1.35362
1476.47; 1984.900; 1531.300;11884.300; 1.35839
1480.38; 1980.000; 1517.300;11801.000; 1.34685
1484.28; 1986.600; 1535.000;11762.600; 1.35502
1488.19; 1975.000; 1522.200;11690.100; 1.35132
1492.09; 1936.100; 1489.900;11596.700; 1.35508
1495.99; 1952.700; 1506.600;11539.600; 1.35200
1499.89; 1958.700; 1513.300;11504.200; 1.35085
1503.78; 1959.600; 1515.200;11427.600; 1.34840
1507.67; 1976.700; 1539.800;11381.400; 1.35268
1511.56; 1931.900; 1498.300;11268.800; 1.35283
1515.44; 1958.900; 1525.700;11237.600; 1.35062
1519.33; 1943.600; 1515.200;11135.600; 1.35134
1523.21; 1954.300; 1523.900;11078.700; 1.34635
1527.08; 1935.100; 1519.400;10990.300; 1.35761
1530.96; 1921.600; 1500.300;10886.000; 1.34788
1534.83; 1965.200; 1544.300;10845.200; 1.34435
1538.70; 1925.500; 1508.600;10715.900; 1.34410
1542.56; 1904.200; 1500.900;10619.900; 1.35432
1546.42; 1921.200; 1517.300;10554.500; 1.34976
1550.28; 1914.400; 1513.400;10453.100; 1.34818
1554.14; 1915.000; 1508.800;10345.500; 1.33755
1557.99; 1924.300; 1525.700;10266.900; 1.34103
1561.84; 1886.100; 1498.400;10122.900; 1.34724
1565.69; 1900.100; 1516.200;10052.800; 1.34707
1569.54; 1887.400; 1503.300; 9933.900; 1.34141
1573.38; 1881.500; 1501.700; 9824.400; 1.34071
1577.22; 1904.100; 1527.000; 9752.100; 1.33868
1581.05; 1879.100; 1512.400; 9625.200; 1.34486
1584.89; 1891.700; 1524.900; 9522.100; 1.33851
1588.72; 1885.700; 1517.700; 9409.100; 1.33131
1592.54; 1860.600; 1506.200; 9274.600; 1.34084
1596.37; 1871.800; 1517.200; 9177.600; 1.33451
1600.19; 1857.300; 1510.100; 9050.400; 1.33681
1604.01; 1830.500; 1486.400; 8899.400; 1.33331
1607.82; 1839.800; 1509.800; 8796.900; 1.34404
1611.63; 1812.400; 1480.100; 8624.900; 1.33246
1615.44; 1879.800; 1553.300; 8575.400; 1.33258
1619.25; 1806.700; 1486.200; 8361.300; 1.33145
1623.05; 1796.200; 1479.000; 8208.600; 1.32666
1626.85; 1822.800; 1513.000; 8103.300; 1.32782
1630.64; 1830.000; 1524.000; 7969.700; 1.32355
1634.44; 1802.900; 1504.600; 7800.200; 1.32438
1638.23; 1800.200; 1503.300; 7652.600; 1.31622
1642.01; 1791.700; 1506.800; 7500.000; 1.32297
1645.80; 1777.300; 1499.800; 7336.400; 1.32290
1649.58; 1782.700; 1507.600; 7165.100; 1.31313
1653.35; 1823.300; 1554.000; 7043.000; 1.30926
1657.13; 1744.400; 1486.500; 6816.300; 1.31526
1660.90; 1755.400; 1500.200; 6658.700; 1.30564
1664.67; 1736.300; 1492.900; 6464.500; 1.31018
1668.43; 1745.800; 1506.200; 6271.300; 1.29859
1672.19; 1755.000; 1522.100; 6011.600; 1.28503
1675.95; 1706.700; 1493.800; 5613.400; 1.28668
1679.70; 1734.500; 1530.900; 5235.900; 1.26001
1683.46; 1677.200; 1497.800; 4742.900; 1.25741
1687.20; 1670.700; 1511.400; 4295.600; 1.24248
1690.95; 1649.800; 1504.400; 3867.300; 1.21088
1694.69; 1645.100; 1514.400; 3526.700; 1.18742
1698.43; 1604.500; 1482.500; 3185.600; 1.14488
1702.16; 1609.700; 1497.600; 2968.200; 1.11789
1705.89; 1604.200; 1499.300; 2779.100; 1.08637
1709.62; 1587.800; 1493.100; 2618.100; 1.07480
1713.35; 1618.900; 1522.600; 2525.400; 1.01759
1717.07; 1576.300; 1492.000; 2393.400; 1.02909
1720.79; 1599.600; 1513.300; 2338.300; 0.98044
1724.50; 1598.100; 1514.000; 2272.300; 0.95505
1728.21; 1574.800; 1499.400; 2201.400; 0.96897
1731.92; 1570.100; 1495.900; 2152.500; 0.94690
1735.63; 1561.800; 1483.800; 2109.800; 0.90448
1739.33; 1602.500; 1525.100; 2113.700; 0.88108
1743.02; 1568.300; 1493.200; 2053.800; 0.87301
1746.72; 1568.200; 1494.300; 2031.700; 0.86165
1750.41; 1577.400; 1502.900; 2014.600; 0.83686
1754.10; 1583.600; 1515.500; 2011.500; 0.86233

