
Integration time [ms]:  10.000
Averaging Nr. [scans]: 10
Smoothing Nr. [pixels]: 0
Data measured with spectrometer [name]: 1911294U1
Wave   ;Sample   ;Dark     ;Reference;Absorbance
[nm]   ;[counts] ;[counts] ;[counts] ;[A.U]

 860.61; 1624.700; 1551.700; 1907.800; 0.68825
 864.82; 1572.300; 1505.600; 1955.500; 0.82899
 869.02; 1585.200; 1514.900; 2034.000; 0.86830
 873.23; 1615.300; 1530.300; 2122.800; 0.84327
 877.43; 1565.100; 1494.800; 2149.500; 0.96909
 881.63; 1613.700; 1530.800; 2256.000; 0.94190
 885.83; 1587.100; 1499.600; 2300.600; 0.96162
 890.03; 1591.100; 1501.000; 2363.200; 0.98088
 894.23; 1591.000; 1498.400; 2434.200; 1.00457
 898.42; 1579.900; 1490.200; 2489.500; 1.04690
 902.62; 1618.500; 1522.400; 2605.100; 1.05178
 906.81; 1587.200; 1488.700; 2644.500; 1.06945
 911.00; 1595.700; 1494.400; 2732.000; 1.08697
 915.19; 1608.000; 1503.000; 2840.700; 1.10517
 919.38; 1651.000; 1541.400; 2988.000; 1.12054
 923.57; 1587.700; 1477.600; 3060.100; 1.15756
 927.76; 1633.500; 1511.200; 3297.300; 1.16448
 931.94; 1621.900; 1493.300; 3511.600; 1.19574
 936.13; 1658.700; 1516.000; 3764.700; 1.19751
 940.31; 1630.200; 1484.900; 3931.100; 1.22623
 944.49; 1704.000; 1547.000; 4163.000; 1.22174
 948.67; 1687.000; 1518.900; 4297.000; 1.21818
 952.85; 1663.300; 1493.400; 4427.000; 1.23721
 957.03; 1677.200; 1501.100; 4604.000; 1.24601
 961.21; 1697.700; 1518.200; 4778.500; 1.25919
 965.38; 1696.400; 1507.600; 4921.400; 1.25724
 969.55; 1695.000; 1505.800; 5072.200; 1.27531
 973.73; 1720.700; 1520.500; 5253.800; 1.27063
 977.90; 1715.600; 1511.100; 5413.200; 1.28061
 982.06; 1729.200; 1518.800; 5592.700; 1.28696
 986.23; 1727.700; 1506.000; 5748.000; 1.28180
 990.40; 1746.200; 1519.400; 5941.100; 1.28995
 994.56; 1776.200; 1538.400; 6129.700; 1.28572
 998.72; 1778.600; 1541.900; 6290.500; 1.30237
1002.88; 1757.000; 1510.200; 6415.300; 1.29830
1007.04; 1774.900; 1529.400; 6579.000; 1.31321
1011.20; 1774.800; 1519.900; 6717.500; 1.30943
1015.36; 1803.600; 1543.200; 6867.300; 1.31061
1019.51; 1772.300; 1510.000; 6947.400; 1.31659
1023.67; 1791.300; 1530.900; 7080.200; 1.32860
1027.82; 1785.600; 1512.800; 7172.800; 1.31697
1031.97; 1799.300; 1525.500; 7291.600; 1.32345
1036.12; 1799.700; 1523.900; 7384.200; 1.32733
1040.27; 1803.900; 1520.100; 7490.500; 1.32299
1044.41; 1811.100; 1522.700; 7585.300; 1.32266
1048.56; 1821.200; 1534.900; 7704.000; 1.33340
1052.70; 1814.300; 1519.500; 7789.500; 1.32774
1056.84; 1825.700; 1529.400; 7905.400; 1.33282
1060.98; 1793.400; 1501.100; 7985.000; 1.34601
1065.11; 1822.200; 1513.900; 8119.500; 1.33094
1069.25; 1839.200; 1526.700; 8264.000; 1.33364
1073.38; 1846.800; 1527.800; 8408.100; 1.33382
1077.52; 1871.200; 1546.500; 8548.800; 1.33376
1081.65; 1858.600; 1532.900; 8683.900; 1.34155
1085.77; 1863.800; 1527.000; 8829.600; 1.33611
1089.90; 1872.100; 1533.700; 8986.900; 1.34291
1094.03; 1850.000; 1500.400; 9113.600; 1.33800
1098.15; 1894.900; 1546.400; 9322.700; 1.34857
1102.27; 1846.200; 1489.800; 9441.600; 1.34853
1106.39; 1890.800; 1527.600; 9661.400; 1.35015
1110.51; 1926.400; 1551.400; 9878.200; 1.34645
1114.63; 1882.500; 1500.800;10067.700; 1.35110
1118.74; 1947.600; 1553.000;10360.700; 1.34871
1122.85; 1928.200; 1530.700;10522.800; 1.35452
1126.96; 1907.600; 1503.600;10642.400; 1.35451
1131.07; 1968.500; 1554.700;10786.500; 1.34850
1135.18; 1916.600; 1504.600;10802.100; 1.35347
1139.29; 1928.100; 1516.000;10868.600; 1.35593
1143.39; 1953.800; 1538.200;10912.400; 1.35326
1147.49; 1928.600; 1518.500;10897.900; 1.35929
1151.59; 1927.600; 1515.000;10914.000; 1.35755
1155.69; 1961.100; 1541.600;10966.800; 1.35156
1159.78; 1916.100; 1502.700;10951.200; 1.35899
1163.88; 1955.400; 1536.300;11019.900; 1.35466
1167.97; 1960.000; 1537.000;11049.100; 1.35194
1172.06; 1933.200; 1514.600;11052.300; 1.35764
1176.15; 1933.800; 1511.400;11073.900; 1.35485
1180.23; 1975.900; 1549.600;11155.900; 1.35284
1184.32; 1919.800; 1494.700;11140.100; 1.35583
1188.40; 1944.300; 1514.000;11201.700; 1.35245
1192.48; 1941.900; 1515.300;11260.500; 1.35877
1196.56; 1951.000; 1521.200;11309.800; 1.35745
1200.64; 1970.900; 1534.600;11380.300; 1.35346
1204.71; 1944.100; 1514.200;11415.100; 1.36231
1208.78; 1962.000; 1522.400;11476.100; 1.35493
1212.85; 1984.800; 1547.900;11559.600; 1.36013
1216.92; 1912.700; 1476.200;11533.500; 1.36250
1220.99; 1976.900; 1534.300;11668.800; 1.35979
1225.05; 1970.200; 1527.500;11719.100; 1.36213
1229.11; 1946.700; 1506.200;11777.200; 1.36767
1233.17; 1989.500; 1537.300;11867.500; 1.35878
1237.23; 1993.000; 1535.100;11935.000; 1.35626
1241.29; 1985.900; 1531.200;11992.800; 1.36187
1245.34; 2018.900; 1560.000;12107.000; 1.36141
1249.39; 1958.700; 1500.000;12117.900; 1.36451
1253.44; 1985.000; 1518.900;12212.500; 1.36064
1257.49; 2025.500; 1552.800;12334.500; 1.35810
1261.53; 1990.300; 1518.900;12369.900; 1.36208
1265.58; 1999.200; 1525.900;12452.600; 1.36335
1269.62; 1999.500; 1519.600;12529.800; 1.36064
1273.65; 2002.400; 1519.900;12603.400; 1.36118
1277.69; 1996.100; 1518.000;12681.800; 1.36829
1281.72; 2018.600; 1530.100;12773.400; 1.36203
1285.76; 2019.000; 1529.900;12851.500; 1.36451
1289.79; 2021.200; 1520.800;12909.400; 1.35715
1293.81; 2002.600; 1511.100;12974.600; 1.36779
1297.84; 1983.400; 1490.200;13004.900; 1.36823
1301.86; 2048.700; 1546.100;13137.300; 1.36291
1305.88; 2018.400; 1520.800;13163.800; 1.36918
1309.90; 2046.100; 1541.300;13243.300; 1.36514
1313.92; 2001.000; 1497.800;13236.900; 1.36789
1317.93; 2031.000; 1527.400;13321.700; 1.36959
1321.94; 2029.200; 1516.400;13349.300; 1.36314
1325.95; 2029.200; 1515.800;13392.300; 1.36423
1329.96; 2050.000; 1527.200;13449.200; 1.35801
1333.96; 2045.800; 1523.500;13501.700; 1.36047
1337.96; 2044.500; 1525.700;13575.100; 1.36597
1341.96; 2055.100; 1530.100;13604.900; 1.36172
1345.96; 2035.800; 1514.800;13535.100; 1.36308
1349.95; 2015.000; 1504.900;13357.000; 1.36614
1353.95; 1997.600; 1500.800;13080.300; 1.36751
1357.94; 1999.600; 1519.000;12810.900; 1.37098
1361.92; 1997.700; 1525.200;12577.700; 1.36906
1365.91; 1971.700; 1509.100;12495.800; 1.37566
1369.89; 1966.900; 1500.900;12522.200; 1.37385
1373.87; 1957.000; 1483.400;12502.700; 1.36674
1377.85; 2002.500; 1541.800;12256.400; 1.36656
1381.82; 1935.600; 1495.800;11839.800; 1.37143
1385.80; 1993.400; 1542.900;11856.600; 1.35972
1389.77; 1975.300; 1524.900;11869.500; 1.36112
1393.74; 1950.000; 1509.900;11804.200; 1.36905
1397.70; 1999.700; 1552.300;11918.000; 1.36490
1401.66; 1977.700; 1522.100;11986.800; 1.36114
1405.62; 1955.200; 1502.000;12055.500; 1.36711
1409.58; 1990.300; 1528.700;12203.600; 1.36410
1413.54; 1989.000; 1519.400;12293.200; 1.36064
1417.49; 1944.600; 1476.800;12292.900; 1.36401
1421.44; 1995.200; 1523.100;12384.600; 1.36186
1425.39; 1980.100; 1510.500;12382.800; 1.36459
1429.33; 2004.500; 1525.700;12395.900; 1.35608
1433.27; 1994.800; 1523.700;12370.200; 1.36218
1437.21; 1972.300; 1502.800;12323.500; 1.36262
1441.15; 2020.300; 1543.700;12339.600; 1.35510
1445.09; 2006.200; 1531.000;12292.800; 1.35501
1449.02; 1955.900; 1489.700;12200.500; 1.36125
1452.95; 2000.900; 1529.700;12230.100; 1.35619
1456.87; 1997.900; 1524.100;12175.900; 1.35183
1460.80; 1979.500; 1510.600;12112.200; 1.35429
1464.72; 1965.200; 1502.500;12023.800; 1.35677
1468.64; 1962.100; 1502.300;11961.600; 1.35693
1472.55; 1976.800; 1518.100;11913.700; 1.35532
1476.47; 1989.800; 1531.300;11884.300; 1.35373
1480.38; 1978.200; 1517.300;11801.000; 1.34854
1484.28; 1981.900; 1535.000;11762.600; 1.35956
1488.19; 1970.200; 1522.200;11690.100; 1.35595
1492.09; 1936.800; 1489.900;11596.700; 1.35440
1495.99; 1953.200; 1506.600;11539.600; 1.35151
1499.89; 1959.900; 1513.300;11504.200; 1.34969
1503.78; 1956.800; 1515.200;11427.600; 1.35115
1507.67; 1980.700; 1539.800;11381.400; 1.34873
1511.56; 1936.300; 1498.300;11268.800; 1.34844
1515.44; 1963.300; 1525.700;11237.600; 1.34623
1519.33; 1948.400; 1515.200;11135.600; 1.34650
1523.21; 1956.000; 1523.900;11078.700; 1.34464
1527.08; 1942.200; 1519.400;10990.300; 1.35026
1530.96; 1927.200; 1500.300;10886.000; 1.34214
1534.83; 1966.400; 1544.300;10845.200; 1.34311
1538.70; 1924.600; 1508.600;10715.900; 1.34504
1542.56; 1908.700; 1500.900;10619.900; 1.34950
1546.42; 1926.600; 1517.300;10554.500; 1.34399
1550.28; 1918.100; 1513.400;10453.100; 1.34419
1554.14; 1913.200; 1508.800;10345.500; 1.33948
1557.99; 1925.700; 1525.700;10266.900; 1.33951
1561.84; 1885.000; 1498.400;10122.900; 1.34847
1565.69; 1900.100; 1516.200;10052.800; 1.34707
1569.54; 1892.700; 1503.300; 9933.900; 1.33546
1573.38; 1881.200; 1501.700; 9824.400; 1.34105
1577.22; 1910.800; 1527.000; 9752.100; 1.33104
1581.05; 1884.700; 1512.400; 9625.200; 1.33828
1584.89; 1894.300; 1524.900; 9522.100; 1.33544
1588.72; 1886.200; 1517.700; 9409.100; 1.33072
1592.54; 1857.100; 1506.200; 9274.600; 1.34515
1596.37; 1875.600; 1517.200; 9177.600; 1.32988
1600.19; 1865.100; 1510.100; 9050.400; 1.32716
1604.01; 1832.700; 1486.400; 8899.400; 1.33054
1607.82; 1845.700; 1509.800; 8796.900; 1.33634
1611.63; 1815.300; 1480.100; 8624.900; 1.32869
1615.44; 1883.200; 1553.300; 8575.400; 1.32808
1619.25; 1807.200; 1486.200; 8361.300; 1.33077
1623.05; 1795.200; 1479.000; 8208.600; 1.32803
1626.85; 1823.500; 1513.000; 8103.300; 1.32684
1630.64; 1833.600; 1524.000; 7969.700; 1.31847
1634.44; 1801.300; 1504.600; 7800.200; 1.32672
1638.23; 1797.100; 1503.300; 7652.600; 1.32077
1642.01; 1802.300; 1506.800; 7500.000; 1.30710
1645.80; 1780.700; 1499.800; 7336.400; 1.31761
1649.58; 1783.900; 1507.600; 7165.100; 1.31124
1653.35; 1829.000; 1554.000; 7043.000; 1.30016
1657.13; 1745.000; 1486.500; 6816.300; 1.31425
1660.90; 1759.500; 1500.200; 6658.700; 1.29872
1664.67; 1735.600; 1492.900; 6464.500; 1.31143
1668.43; 1745.300; 1506.200; 6271.300; 1.29949
1672.19; 1756.000; 1522.100; 6011.600; 1.28317
1675.95; 1709.200; 1493.800; 5613.400; 1.28161
1679.70; 1736.300; 1530.900; 5235.900; 1.25619
1683.46; 1678.500; 1497.800; 4742.900; 1.25427
1687.20; 1676.000; 1511.400; 4295.600; 1.22827
1690.95; 1656.300; 1504.400; 3867.300; 1.19189
1694.69; 1647.000; 1514.400; 3526.700; 1.18115
1698.43; 1601.300; 1482.500; 3185.600; 1.15642
1702.16; 1609.300; 1497.600; 2968.200; 1.11944
1705.89; 1605.500; 1499.300; 2779.100; 1.08102
1709.62; 1587.700; 1493.100; 2618.100; 1.07526
1713.35; 1623.200; 1522.600; 2525.400; 0.99862
1717.07; 1576.900; 1492.000; 2393.400; 1.02601
1720.79; 1601.000; 1513.300; 2338.300; 0.97345
1724.50; 1601.900; 1514.000; 2272.300; 0.93585
1728.21; 1581.000; 1499.400; 2201.400; 0.93465
1731.92; 1570.200; 1495.900; 2152.500; 0.94631
1735.63; 1568.300; 1483.800; 2109.800; 0.86972
1739.33; 1601.300; 1525.100; 2113.700; 0.88787
1743.02; 1569.600; 1493.200; 2053.800; 0.86556
1746.72; 1572.600; 1494.300; 2031.700; 0.83654
1750.41; 1578.300; 1502.900; 2014.600; 0.83164
1754.10; 1585.900; 1515.500; 2011.500; 0.84791

