
Integration time [ms]:  10.000
Averaging Nr. [scans]: 10
Smoothing Nr. [pixels]: 0
Data measured with spectrometer [name]: 1911294U1
Wave   ;Sample   ;Dark     ;Reference;Absorbance
[nm]   ;[counts] ;[counts] ;[counts] ;[A.U]

 860.61; 1620.100; 1551.700; 1907.800; 0.71652
 864.82; 1572.400; 1505.600; 1955.500; 0.82834
 869.02; 1583.400; 1514.900; 2034.000; 0.87956
 873.23; 1607.600; 1530.300; 2122.800; 0.88451
 877.43; 1565.600; 1494.800; 2149.500; 0.96601
 881.63; 1604.800; 1530.800; 2256.000; 0.99123
 885.83; 1583.500; 1499.600; 2300.600; 0.97987
 890.03; 1584.400; 1501.000; 2363.200; 1.01444
 894.23; 1584.300; 1498.400; 2434.200; 1.03719
 898.42; 1573.700; 1490.200; 2489.500; 1.07801
 902.62; 1616.400; 1522.400; 2605.100; 1.06138
 906.81; 1581.500; 1488.700; 2644.500; 1.09533
 911.00; 1588.100; 1494.400; 2732.000; 1.12084
 915.19; 1602.100; 1503.000; 2840.700; 1.13029
 919.38; 1645.200; 1541.400; 2988.000; 1.14415
 923.57; 1584.400; 1477.600; 3060.100; 1.17077
 927.76; 1634.300; 1511.200; 3297.300; 1.16165
 931.94; 1616.500; 1493.300; 3511.600; 1.21438
 936.13; 1654.200; 1516.000; 3764.700; 1.21142
 940.31; 1623.400; 1484.900; 3931.100; 1.24704
 944.49; 1701.900; 1547.000; 4163.000; 1.22759
 948.67; 1679.300; 1518.900; 4297.000; 1.23854
 952.85; 1656.700; 1493.400; 4427.000; 1.25441
 957.03; 1674.000; 1501.100; 4604.000; 1.25397
 961.21; 1690.500; 1518.200; 4778.500; 1.27697
 965.38; 1687.700; 1507.600; 4921.400; 1.27772
 969.55; 1690.600; 1505.800; 5072.200; 1.28553
 973.73; 1719.800; 1520.500; 5253.800; 1.27259
 977.90; 1714.700; 1511.100; 5413.200; 1.28252
 982.06; 1725.600; 1518.800; 5592.700; 1.29446
 986.23; 1719.500; 1506.000; 5748.000; 1.29817
 990.40; 1740.600; 1519.400; 5941.100; 1.30080
 994.56; 1766.000; 1538.400; 6129.700; 1.30476
 998.72; 1773.000; 1541.900; 6290.500; 1.31277
1002.88; 1748.400; 1510.200; 6415.300; 1.31371
1007.04; 1768.700; 1529.400; 6579.000; 1.32431
1011.20; 1775.100; 1519.900; 6717.500; 1.30892
1015.36; 1801.700; 1543.200; 6867.300; 1.31379
1019.51; 1769.000; 1510.000; 6947.400; 1.32209
1023.67; 1790.500; 1530.900; 7080.200; 1.32993
1027.82; 1782.800; 1512.800; 7172.800; 1.32145
1031.97; 1793.500; 1525.500; 7291.600; 1.33275
1036.12; 1799.400; 1523.900; 7384.200; 1.32780
1040.27; 1800.900; 1520.100; 7490.500; 1.32761
1044.41; 1806.100; 1522.700; 7585.300; 1.33026
1048.56; 1822.100; 1534.900; 7704.000; 1.33204
1052.70; 1808.200; 1519.500; 7789.500; 1.33682
1056.84; 1822.000; 1529.400; 7905.400; 1.33827
1060.98; 1794.600; 1501.100; 7985.000; 1.34423
1065.11; 1810.300; 1513.900; 8119.500; 1.34803
1069.25; 1836.400; 1526.700; 8264.000; 1.33754
1073.38; 1843.800; 1527.800; 8408.100; 1.33792
1077.52; 1861.500; 1546.500; 8548.800; 1.34693
1081.65; 1854.100; 1532.900; 8683.900; 1.34759
1085.77; 1855.000; 1527.000; 8829.600; 1.34760
1089.90; 1870.500; 1533.700; 8986.900; 1.34497
1094.03; 1842.200; 1500.400; 9113.600; 1.34780
1098.15; 1887.700; 1546.400; 9322.700; 1.35764
1102.27; 1839.100; 1489.800; 9441.600; 1.35727
1106.39; 1884.700; 1527.600; 9661.400; 1.35750
1110.51; 1921.100; 1551.400; 9878.200; 1.35263
1114.63; 1881.800; 1500.800;10067.700; 1.35190
1118.74; 1944.500; 1553.000;10360.700; 1.35213
1122.85; 1925.300; 1530.700;10522.800; 1.35770
1126.96; 1900.300; 1503.600;10642.400; 1.36243
1131.07; 1960.300; 1554.700;10786.500; 1.35719
1135.18; 1907.000; 1504.600;10802.100; 1.36371
1139.29; 1923.300; 1516.000;10868.600; 1.36102
1143.39; 1947.900; 1538.200;10912.400; 1.35947
1147.49; 1922.700; 1518.500;10897.900; 1.36558
1151.59; 1930.500; 1515.000;10914.000; 1.35451
1155.69; 1953.300; 1541.600;10966.800; 1.35971
1159.78; 1913.000; 1502.700;10951.200; 1.36226
1163.88; 1952.400; 1536.300;11019.900; 1.35778
1167.97; 1956.800; 1537.000;11049.100; 1.35523
1172.06; 1927.500; 1514.600;11052.300; 1.36360
1176.15; 1929.000; 1511.400;11073.900; 1.35981
1180.23; 1977.800; 1549.600;11155.900; 1.35091
1184.32; 1921.300; 1494.700;11140.100; 1.35430
1188.40; 1935.500; 1514.000;11201.700; 1.36142
1192.48; 1942.800; 1515.300;11260.500; 1.35785
1196.56; 1950.100; 1521.200;11309.800; 1.35836
1200.64; 1970.800; 1534.600;11380.300; 1.35356
1204.71; 1949.100; 1514.200;11415.100; 1.35729
1208.78; 1955.600; 1522.400;11476.100; 1.36130
1212.85; 1982.000; 1547.900;11559.600; 1.36292
1216.92; 1909.700; 1476.200;11533.500; 1.36549
1220.99; 1976.200; 1534.300;11668.800; 1.36048
1225.05; 1970.900; 1527.500;11719.100; 1.36145
1229.11; 1950.600; 1506.200;11777.200; 1.36384
1233.17; 1986.600; 1537.300;11867.500; 1.36157
1237.23; 1988.500; 1535.100;11935.000; 1.36055
1241.29; 1983.800; 1531.200;11992.800; 1.36388
1245.34; 2015.800; 1560.000;12107.000; 1.36435
1249.39; 1956.300; 1500.000;12117.900; 1.36679
1253.44; 1978.100; 1518.900;12212.500; 1.36712
1257.49; 2019.500; 1552.800;12334.500; 1.36365
1261.53; 1986.700; 1518.900;12369.900; 1.36541
1265.58; 1994.200; 1525.900;12452.600; 1.36796
1269.62; 1989.000; 1519.600;12529.800; 1.37025
1273.65; 2002.200; 1519.900;12603.400; 1.36136
1277.69; 1995.100; 1518.000;12681.800; 1.36920
1281.72; 2017.400; 1530.100;12773.400; 1.36310
1285.76; 2019.400; 1529.900;12851.500; 1.36416
1289.79; 2008.700; 1520.800;12909.400; 1.36814
1293.81; 1999.500; 1511.100;12974.600; 1.37054
1297.84; 1984.100; 1490.200;13004.900; 1.36761
1301.86; 2047.600; 1546.100;13137.300; 1.36386
1305.88; 2017.000; 1520.800;13163.800; 1.37041
1309.90; 2044.000; 1541.300;13243.300; 1.36695
1313.92; 1998.700; 1497.800;13236.900; 1.36988
1317.93; 2035.300; 1527.400;13321.700; 1.36589
1321.94; 2026.600; 1516.400;13349.300; 1.36535
1325.95; 2026.600; 1515.800;13392.300; 1.36644
1329.96; 2044.600; 1527.200;13449.200; 1.36252
1333.96; 2041.000; 1523.500;13501.700; 1.36448
1337.96; 2042.400; 1525.700;13575.100; 1.36773
1341.96; 2054.300; 1530.100;13604.900; 1.36238
1345.96; 2025.100; 1514.800;13535.100; 1.37209
1349.95; 2011.800; 1504.900;13357.000; 1.36887
1353.95; 1994.900; 1500.800;13080.300; 1.36987
1357.94; 1994.700; 1519.000;12810.900; 1.37543
1361.92; 1994.900; 1525.200;12577.700; 1.37164
1365.91; 1968.500; 1509.100;12495.800; 1.37868
1369.89; 1963.800; 1500.900;12522.200; 1.37675
1373.87; 1949.600; 1483.400;12502.700; 1.37358
1377.85; 1999.400; 1541.800;12256.400; 1.36949
1381.82; 1932.100; 1495.800;11839.800; 1.37490
1385.80; 1986.900; 1542.900;11856.600; 1.36603
1389.77; 1972.100; 1524.900;11869.500; 1.36421
1393.74; 1949.100; 1509.900;11804.200; 1.36993
1397.70; 2000.100; 1552.300;11918.000; 1.36451
1401.66; 1976.700; 1522.100;11986.800; 1.36210
1405.62; 1951.500; 1502.000;12055.500; 1.37067
1409.58; 1986.000; 1528.700;12203.600; 1.36816
1413.54; 1986.300; 1519.400;12293.200; 1.36315
1417.49; 1941.700; 1476.800;12292.900; 1.36671
1421.44; 1990.600; 1523.100;12384.600; 1.36611
1425.39; 1978.000; 1510.500;12382.800; 1.36654
1429.33; 1999.500; 1525.700;12395.900; 1.36064
1433.27; 1990.100; 1523.700;12370.200; 1.36653
1437.21; 1971.000; 1502.800;12323.500; 1.36382
1441.15; 2015.400; 1543.700;12339.600; 1.35959
1445.09; 1996.000; 1531.000;12292.800; 1.36443
1449.02; 1949.900; 1489.700;12200.500; 1.36688
1452.95; 1999.800; 1529.700;12230.100; 1.35721
1456.87; 1991.700; 1524.100;12175.900; 1.35755
1460.80; 1979.300; 1510.600;12112.200; 1.35448
1464.72; 1963.700; 1502.500;12023.800; 1.35818
1468.64; 1961.300; 1502.300;11961.600; 1.35769
1472.55; 1972.100; 1518.100;11913.700; 1.35979
1476.47; 1985.300; 1531.300;11884.300; 1.35801
1480.38; 1975.800; 1517.300;11801.000; 1.35081
1484.28; 1984.400; 1535.000;11762.600; 1.35714
1488.19; 1965.400; 1522.200;11690.100; 1.36063
1492.09; 1933.000; 1489.900;11596.700; 1.35811
1495.99; 1949.700; 1506.600;11539.600; 1.35493
1499.89; 1954.800; 1513.300;11504.200; 1.35467
1503.78; 1951.200; 1515.200;11427.600; 1.35669
1507.67; 1974.000; 1539.800;11381.400; 1.35538
1511.56; 1929.500; 1498.300;11268.800; 1.35524
1515.44; 1956.000; 1525.700;11237.600; 1.35353
1519.33; 1943.500; 1515.200;11135.600; 1.35145
1523.21; 1949.600; 1523.900;11078.700; 1.35112
1527.08; 1935.100; 1519.400;10990.300; 1.35761
1530.96; 1920.300; 1500.300;10886.000; 1.34922
1534.83; 1959.300; 1544.300;10845.200; 1.35048
1538.70; 1912.400; 1508.600;10715.900; 1.35797
1542.56; 1901.900; 1500.900;10619.900; 1.35680
1546.42; 1922.200; 1517.300;10554.500; 1.34869
1550.28; 1912.300; 1513.400;10453.100; 1.35046
1554.14; 1905.600; 1508.800;10345.500; 1.34772
1557.99; 1920.400; 1525.700;10266.900; 1.34530
1561.84; 1884.000; 1498.400;10122.900; 1.34960
1565.69; 1898.300; 1516.200;10052.800; 1.34911
1569.54; 1882.700; 1503.300; 9933.900; 1.34676
1573.38; 1880.900; 1501.700; 9824.400; 1.34140
1577.22; 1901.400; 1527.000; 9752.100; 1.34181
1581.05; 1878.900; 1512.400; 9625.200; 1.34510
1584.89; 1890.400; 1524.900; 9522.100; 1.34005
1588.72; 1878.600; 1517.700; 9409.100; 1.33977
1592.54; 1858.100; 1506.200; 9274.600; 1.34391
1596.37; 1875.300; 1517.200; 9177.600; 1.33025
1600.19; 1850.800; 1510.100; 9050.400; 1.34502
1604.01; 1826.500; 1486.400; 8899.400; 1.33839
1607.82; 1839.900; 1509.800; 8796.900; 1.34391
1611.63; 1809.700; 1480.100; 8624.900; 1.33600
1615.44; 1881.200; 1553.300; 8575.400; 1.33073
1619.25; 1798.700; 1486.200; 8361.300; 1.34243
1623.05; 1786.500; 1479.000; 8208.600; 1.34014
1626.85; 1825.000; 1513.000; 8103.300; 1.32475
1630.64; 1832.900; 1524.000; 7969.700; 1.31945
1634.44; 1798.100; 1504.600; 7800.200; 1.33143
1638.23; 1797.500; 1503.300; 7652.600; 1.32018
1642.01; 1791.600; 1506.800; 7500.000; 1.32312
1645.80; 1772.900; 1499.800; 7336.400; 1.32984
1649.58; 1778.900; 1507.600; 7165.100; 1.31917
1653.35; 1818.700; 1554.000; 7043.000; 1.31674
1657.13; 1741.500; 1486.500; 6816.300; 1.32017
1660.90; 1753.500; 1500.200; 6658.700; 1.30889
1664.67; 1736.800; 1492.900; 6464.500; 1.30928
1668.43; 1739.300; 1506.200; 6271.300; 1.31053
1672.19; 1753.400; 1522.100; 6011.600; 1.28802
1675.95; 1700.600; 1493.800; 5613.400; 1.29930
1679.70; 1730.100; 1530.900; 5235.900; 1.26950
1683.46; 1674.400; 1497.800; 4742.900; 1.26424
1687.20; 1671.400; 1511.400; 4295.600; 1.24058
1690.95; 1647.400; 1504.400; 3867.300; 1.21811
1694.69; 1645.500; 1514.400; 3526.700; 1.18609
1698.43; 1597.500; 1482.500; 3185.600; 1.17054
1702.16; 1603.600; 1497.600; 2968.200; 1.14219
1705.89; 1598.000; 1499.300; 2779.100; 1.11282
1709.62; 1587.600; 1493.100; 2618.100; 1.07572
1713.35; 1615.800; 1522.600; 2525.400; 1.03180
1717.07; 1574.600; 1492.000; 2393.400; 1.03794
1720.79; 1596.500; 1513.300; 2338.300; 0.99633
1724.50; 1592.700; 1514.000; 2272.300; 0.98387
1728.21; 1576.000; 1499.400; 2201.400; 0.96211
1731.92; 1573.400; 1495.900; 2152.500; 0.92800
1735.63; 1559.100; 1483.800; 2109.800; 0.91978
1739.33; 1598.400; 1525.100; 2113.700; 0.90472
1743.02; 1570.600; 1493.200; 2053.800; 0.85991
1746.72; 1566.900; 1494.300; 2031.700; 0.86936
1750.41; 1573.600; 1502.900; 2014.600; 0.85960
1754.10; 1584.300; 1515.500; 2011.500; 0.85789

