
Integration time [ms]:  10.000
Averaging Nr. [scans]: 10
Smoothing Nr. [pixels]: 0
Data measured with spectrometer [name]: 1911294U1
Wave   ;Sample   ;Dark     ;Reference;Absorbance
[nm]   ;[counts] ;[counts] ;[counts] ;[A.U]

 860.61; 1634.400; 1551.700; 1907.800; 0.63407
 864.82; 1583.100; 1505.600; 1955.500; 0.76381
 869.02; 1592.500; 1514.900; 2034.000; 0.82539
 873.23; 1622.400; 1530.300; 2122.800; 0.80843
 877.43; 1571.800; 1494.800; 2149.500; 0.92955
 881.63; 1620.700; 1530.800; 2256.000; 0.90670
 885.83; 1591.900; 1499.600; 2300.600; 0.93843
 890.03; 1597.500; 1501.000; 2363.200; 0.95108
 894.23; 1601.200; 1498.400; 2434.200; 0.95919
 898.42; 1581.000; 1490.200; 2489.500; 1.04161
 902.62; 1623.200; 1522.400; 2605.100; 1.03105
 906.81; 1589.800; 1488.700; 2644.500; 1.05813
 911.00; 1605.900; 1494.400; 2732.000; 1.04531
 915.19; 1612.900; 1503.000; 2840.700; 1.08536
 919.38; 1655.700; 1541.400; 2988.000; 1.10230
 923.57; 1598.100; 1477.600; 3060.100; 1.11836
 927.76; 1641.300; 1511.200; 3297.300; 1.13763
 931.94; 1629.000; 1493.300; 3511.600; 1.17241
 936.13; 1665.000; 1516.000; 3764.700; 1.17875
 940.31; 1638.500; 1484.900; 3931.100; 1.20210
 944.49; 1710.900; 1547.000; 4163.000; 1.20306
 948.67; 1687.300; 1518.900; 4297.000; 1.21741
 952.85; 1666.100; 1493.400; 4427.000; 1.23011
 957.03; 1687.400; 1501.100; 4604.000; 1.22155
 961.21; 1705.200; 1518.200; 4778.500; 1.24142
 965.38; 1696.800; 1507.600; 4921.400; 1.25632
 969.55; 1701.700; 1505.800; 5072.200; 1.26020
 973.73; 1724.800; 1520.500; 5253.800; 1.26182
 977.90; 1718.500; 1511.100; 5413.200; 1.27449
 982.06; 1737.700; 1518.800; 5592.700; 1.26976
 986.23; 1729.900; 1506.000; 5748.000; 1.27752
 990.40; 1750.100; 1519.400; 5941.100; 1.28254
 994.56; 1781.100; 1538.400; 6129.700; 1.27687
 998.72; 1785.200; 1541.900; 6290.500; 1.29042
1002.88; 1756.900; 1510.200; 6415.300; 1.29848
1007.04; 1781.700; 1529.400; 6579.000; 1.30134
1011.20; 1781.300; 1519.900; 6717.500; 1.29850
1015.36; 1807.400; 1543.200; 6867.300; 1.30431
1019.51; 1776.000; 1510.000; 6947.400; 1.31051
1023.67; 1801.500; 1530.900; 7080.200; 1.31191
1027.82; 1789.500; 1512.800; 7172.800; 1.31081
1031.97; 1807.800; 1525.500; 7291.600; 1.31017
1036.12; 1806.300; 1523.900; 7384.200; 1.31706
1040.27; 1802.700; 1520.100; 7490.500; 1.32483
1044.41; 1813.600; 1522.700; 7585.300; 1.31892
1048.56; 1835.300; 1534.900; 7704.000; 1.31252
1052.70; 1813.900; 1519.500; 7789.500; 1.32833
1056.84; 1832.300; 1529.400; 7905.400; 1.32325
1060.98; 1804.900; 1501.100; 7985.000; 1.32925
1065.11; 1819.800; 1513.900; 8119.500; 1.33433
1069.25; 1845.100; 1526.700; 8264.000; 1.32551
1073.38; 1854.800; 1527.800; 8408.100; 1.32306
1077.52; 1874.100; 1546.500; 8548.800; 1.32990
1081.65; 1864.600; 1532.900; 8683.900; 1.33362
1085.77; 1867.400; 1527.000; 8829.600; 1.33149
1089.90; 1878.900; 1533.700; 8986.900; 1.33427
1094.03; 1853.600; 1500.400; 9113.600; 1.33355
1098.15; 1906.200; 1546.400; 9322.700; 1.33471
1102.27; 1843.500; 1489.800; 9441.600; 1.35183
1106.39; 1897.900; 1527.600; 9661.400; 1.34174
1110.51; 1933.900; 1551.400; 9878.200; 1.33785
1114.63; 1890.400; 1500.800;10067.700; 1.34220
1118.74; 1955.700; 1553.000;10360.700; 1.33988
1122.85; 1936.200; 1530.700;10522.800; 1.34587
1126.96; 1911.400; 1503.600;10642.400; 1.35044
1131.07; 1973.200; 1554.700;10786.500; 1.34359
1135.18; 1919.600; 1504.600;10802.100; 1.35032
1139.29; 1934.400; 1516.000;10868.600; 1.34934
1143.39; 1956.800; 1538.200;10912.400; 1.35013
1147.49; 1931.700; 1518.500;10897.900; 1.35601
1151.59; 1929.800; 1515.000;10914.000; 1.35524
1155.69; 1965.100; 1541.600;10966.800; 1.34744
1159.78; 1920.600; 1502.700;10951.200; 1.35429
1163.88; 1959.100; 1536.300;11019.900; 1.35084
1167.97; 1965.700; 1537.000;11049.100; 1.34612
1172.06; 1939.500; 1514.600;11052.300; 1.35116
1176.15; 1936.200; 1511.400;11073.900; 1.35239
1180.23; 1981.000; 1549.600;11155.900; 1.34768
1184.32; 1928.400; 1494.700;11140.100; 1.34713
1188.40; 1940.600; 1514.000;11201.700; 1.35620
1192.48; 1952.200; 1515.300;11260.500; 1.34841
1196.56; 1952.900; 1521.200;11309.800; 1.35554
1200.64; 1981.300; 1534.600;11380.300; 1.34323
1204.71; 1951.500; 1514.200;11415.100; 1.35490
1208.78; 1963.600; 1522.400;11476.100; 1.35335
1212.85; 1991.300; 1547.900;11559.600; 1.35371
1216.92; 1917.400; 1476.200;11533.500; 1.35785
1220.99; 1980.900; 1534.300;11668.800; 1.35588
1225.05; 1979.800; 1527.500;11719.100; 1.35282
1229.11; 1959.400; 1506.200;11777.200; 1.35532
1233.17; 2000.600; 1537.300;11867.500; 1.34825
1237.23; 1997.500; 1535.100;11935.000; 1.35201
1241.29; 1995.200; 1531.200;11992.800; 1.35308
1245.34; 2021.100; 1560.000;12107.000; 1.35933
1249.39; 1969.500; 1500.000;12117.900; 1.35440
1253.44; 1987.100; 1518.900;12212.500; 1.35869
1257.49; 2034.400; 1552.800;12334.500; 1.35000
1261.53; 1989.900; 1518.900;12369.900; 1.36245
1265.58; 2003.500; 1525.900;12452.600; 1.35942
1269.62; 1999.300; 1519.600;12529.800; 1.36083
1273.65; 2009.700; 1519.900;12603.400; 1.35466
1277.69; 1998.000; 1518.000;12681.800; 1.36657
1281.72; 2020.000; 1530.100;12773.400; 1.36079
1285.76; 2026.900; 1529.900;12851.500; 1.35755
1289.79; 2017.900; 1520.800;12909.400; 1.36003
1293.81; 2012.300; 1511.100;12974.600; 1.35931
1297.84; 1990.500; 1490.200;13004.900; 1.36202
1301.86; 2052.200; 1546.100;13137.300; 1.35989
1305.88; 2024.700; 1520.800;13163.800; 1.36372
1309.90; 2051.700; 1541.300;13243.300; 1.36035
1313.92; 2007.500; 1497.800;13236.900; 1.36232
1317.93; 2043.400; 1527.400;13321.700; 1.35902
1321.94; 2029.500; 1516.400;13349.300; 1.36289
1325.95; 2033.500; 1515.800;13392.300; 1.36061
1329.96; 2050.200; 1527.200;13449.200; 1.35785
1333.96; 2046.700; 1523.500;13501.700; 1.35972
1337.96; 2047.000; 1525.700;13575.100; 1.36388
1341.96; 2062.700; 1530.100;13604.900; 1.35548
1345.96; 2037.100; 1514.800;13535.100; 1.36200
1349.95; 2016.600; 1504.900;13357.000; 1.36478
1353.95; 2001.600; 1500.800;13080.300; 1.36403
1357.94; 2003.700; 1519.000;12810.900; 1.36729
1361.92; 2001.600; 1525.200;12577.700; 1.36549
1365.91; 1980.500; 1509.100;12495.800; 1.36748
1369.89; 1972.500; 1500.900;12522.200; 1.36866
1373.87; 1959.200; 1483.400;12502.700; 1.36473
1377.85; 2009.900; 1541.800;12256.400; 1.35964
1381.82; 1942.300; 1495.800;11839.800; 1.36487
1385.80; 1993.800; 1542.900;11856.600; 1.35933
1389.77; 1978.100; 1524.900;11869.500; 1.35842
1393.74; 1956.400; 1509.900;11804.200; 1.36278
1397.70; 2004.200; 1552.300;11918.000; 1.36056
1401.66; 1981.700; 1522.100;11986.800; 1.35735
1405.62; 1957.500; 1502.000;12055.500; 1.36491
1409.58; 1993.000; 1528.700;12203.600; 1.36157
1413.54; 1991.400; 1519.400;12293.200; 1.35843
1417.49; 1949.800; 1476.800;12292.900; 1.35921
1421.44; 1999.000; 1523.100;12384.600; 1.35837
1425.39; 1983.900; 1510.500;12382.800; 1.36109
1429.33; 2006.700; 1525.700;12395.900; 1.35409
1433.27; 1998.200; 1523.700;12370.200; 1.35905
1437.21; 1976.600; 1502.800;12323.500; 1.35866
1441.15; 2021.900; 1543.700;12339.600; 1.35365
1445.09; 2003.600; 1531.000;12292.800; 1.35739
1449.02; 1958.800; 1489.700;12200.500; 1.35856
1452.95; 2005.100; 1529.700;12230.100; 1.35234
1456.87; 2005.000; 1524.100;12175.900; 1.34537
1460.80; 1983.600; 1510.600;12112.200; 1.35051
1464.72; 1968.000; 1502.500;12023.800; 1.35415
1468.64; 1968.400; 1502.300;11961.600; 1.35102
1472.55; 1980.800; 1518.100;11913.700; 1.35155
1476.47; 1989.200; 1531.300;11884.300; 1.35430
1480.38; 1984.100; 1517.300;11801.000; 1.34302
1484.28; 1994.000; 1535.000;11762.600; 1.34796
1488.19; 1978.200; 1522.200;11690.100; 1.34827
1492.09; 1941.500; 1489.900;11596.700; 1.34986
1495.99; 1957.000; 1506.600;11539.600; 1.34783
1499.89; 1961.500; 1513.300;11504.200; 1.34813
1503.78; 1962.300; 1515.200;11427.600; 1.34577
1507.67; 1982.400; 1539.800;11381.400; 1.34705
1511.56; 1934.900; 1498.300;11268.800; 1.34983
1515.44; 1966.900; 1525.700;11237.600; 1.34267
1519.33; 1949.000; 1515.200;11135.600; 1.34590
1523.21; 1956.900; 1523.900;11078.700; 1.34373
1527.08; 1949.600; 1519.400;10990.300; 1.34272
1530.96; 1930.800; 1500.300;10886.000; 1.33849
1534.83; 1973.000; 1544.300;10845.200; 1.33637
1538.70; 1924.400; 1508.600;10715.900; 1.34525
1542.56; 1912.600; 1500.900;10619.900; 1.34537
1546.42; 1927.600; 1517.300;10554.500; 1.34293
1550.28; 1925.500; 1513.400;10453.100; 1.33632
1554.14; 1919.800; 1508.800;10345.500; 1.33245
1557.99; 1924.600; 1525.700;10266.900; 1.34071
1561.84; 1889.600; 1498.400;10122.900; 1.34334
1565.69; 1905.900; 1516.200;10052.800; 1.34055
1569.54; 1895.600; 1503.300; 9933.900; 1.33224
1573.38; 1884.000; 1501.700; 9824.400; 1.33786
1577.22; 1910.400; 1527.000; 9752.100; 1.33149
1581.05; 1887.200; 1512.400; 9625.200; 1.33537
1584.89; 1898.500; 1524.900; 9522.100; 1.33053
1588.72; 1888.000; 1517.700; 9409.100; 1.32860
1592.54; 1862.800; 1506.200; 9274.600; 1.33815
1596.37; 1883.200; 1517.200; 9177.600; 1.32077
1600.19; 1866.200; 1510.100; 9050.400; 1.32582
1604.01; 1834.400; 1486.400; 8899.400; 1.32841
1607.82; 1850.400; 1509.800; 8796.900; 1.33031
1611.63; 1817.900; 1480.100; 8624.900; 1.32533
1615.44; 1890.000; 1553.300; 8575.400; 1.31922
1619.25; 1814.700; 1486.200; 8361.300; 1.32074
1623.05; 1802.600; 1479.000; 8208.600; 1.31798
1626.85; 1830.200; 1513.000; 8103.300; 1.31757
1630.64; 1840.200; 1524.000; 7969.700; 1.30931
1634.44; 1812.500; 1504.600; 7800.200; 1.31063
1638.23; 1807.000; 1503.300; 7652.600; 1.30638
1642.01; 1802.200; 1506.800; 7500.000; 1.30725
1645.80; 1789.900; 1499.800; 7336.400; 1.30361
1649.58; 1788.500; 1507.600; 7165.100; 1.30407
1653.35; 1835.600; 1554.000; 7043.000; 1.28986
1657.13; 1755.400; 1486.500; 6816.300; 1.29712
1660.90; 1760.100; 1500.200; 6658.700; 1.29772
1664.67; 1746.400; 1492.900; 6464.500; 1.29252
1668.43; 1756.100; 1506.200; 6271.300; 1.28031
1672.19; 1761.000; 1522.100; 6011.600; 1.27398
1675.95; 1717.800; 1493.800; 5613.400; 1.26461
1679.70; 1744.700; 1530.900; 5235.900; 1.23878
1683.46; 1686.800; 1497.800; 4742.900; 1.23477
1687.20; 1684.800; 1511.400; 4295.600; 1.20565
1690.95; 1659.800; 1504.400; 3867.300; 1.18199
1694.69; 1658.900; 1514.400; 3526.700; 1.14382
1698.43; 1609.600; 1482.500; 3185.600; 1.12709
1702.16; 1616.700; 1497.600; 2968.200; 1.09158
1705.89; 1614.900; 1499.300; 2779.100; 1.04418
1709.62; 1596.800; 1493.100; 2618.100; 1.03537
1713.35; 1627.900; 1522.600; 2525.400; 0.97879
1717.07; 1582.900; 1492.000; 2393.400; 0.99635
1720.79; 1611.400; 1513.300; 2338.300; 0.92478
1724.50; 1607.800; 1514.000; 2272.300; 0.90764
1728.21; 1586.400; 1499.400; 2201.400; 0.90682
1731.92; 1586.300; 1495.900; 2152.500; 0.86113
1735.63; 1572.800; 1483.800; 2109.800; 0.84718
1739.33; 1608.700; 1525.100; 2113.700; 0.84761
1743.02; 1583.800; 1493.200; 2053.800; 0.79152
1746.72; 1579.600; 1494.300; 2031.700; 0.79935
1750.41; 1589.900; 1502.900; 2014.600; 0.76950
1754.10; 1596.500; 1515.500; 2011.500; 0.78700

