
Integration time [ms]:  10.000
Averaging Nr. [scans]: 10
Smoothing Nr. [pixels]: 0
Data measured with spectrometer [name]: 1911294U1
Wave   ;Sample   ;Dark     ;Reference;Absorbance
[nm]   ;[counts] ;[counts] ;[counts] ;[A.U]

 860.61; 1622.600; 1551.700; 1907.800; 0.70093
 864.82; 1573.200; 1505.600; 1955.500; 0.82317
 869.02; 1583.200; 1514.900; 2034.000; 0.88083
 873.23; 1605.600; 1530.300; 2122.800; 0.89589
 877.43; 1566.200; 1494.800; 2149.500; 0.96234
 881.63; 1610.100; 1530.800; 2256.000; 0.96118
 885.83; 1583.400; 1499.600; 2300.600; 0.98039
 890.03; 1583.500; 1501.000; 2363.200; 1.01915
 894.23; 1590.300; 1498.400; 2434.200; 1.00787
 898.42; 1579.000; 1490.200; 2489.500; 1.05128
 902.62; 1617.200; 1522.400; 2605.100; 1.05770
 906.81; 1581.600; 1488.700; 2644.500; 1.09487
 911.00; 1596.000; 1494.400; 2732.000; 1.08569
 915.19; 1607.100; 1503.000; 2840.700; 1.10891
 919.38; 1653.500; 1541.400; 2988.000; 1.11074
 923.57; 1587.300; 1477.600; 3060.100; 1.15914
 927.76; 1634.500; 1511.200; 3297.300; 1.16094
 931.94; 1622.300; 1493.300; 3511.600; 1.19440
 936.13; 1657.400; 1516.000; 3764.700; 1.20148
 940.31; 1630.100; 1484.900; 3931.100; 1.22653
 944.49; 1701.400; 1547.000; 4163.000; 1.22899
 948.67; 1681.600; 1518.900; 4297.000; 1.23236
 952.85; 1661.300; 1493.400; 4427.000; 1.24235
 957.03; 1676.000; 1501.100; 4604.000; 1.24898
 961.21; 1695.200; 1518.200; 4778.500; 1.26528
 965.38; 1689.000; 1507.600; 4921.400; 1.27460
 969.55; 1693.400; 1505.800; 5072.200; 1.27900
 973.73; 1721.500; 1520.500; 5253.800; 1.26890
 977.90; 1714.200; 1511.100; 5413.200; 1.28359
 982.06; 1724.300; 1518.800; 5592.700; 1.29720
 986.23; 1726.400; 1506.000; 5748.000; 1.28436
 990.40; 1744.200; 1519.400; 5941.100; 1.29379
 994.56; 1770.700; 1538.400; 6129.700; 1.29589
 998.72; 1776.100; 1541.900; 6290.500; 1.30698
1002.88; 1752.800; 1510.200; 6415.300; 1.30576
1007.04; 1774.100; 1529.400; 6579.000; 1.31462
1011.20; 1777.700; 1519.900; 6717.500; 1.30452
1015.36; 1800.900; 1543.200; 6867.300; 1.31513
1019.51; 1774.600; 1510.000; 6947.400; 1.31280
1023.67; 1792.600; 1530.900; 7080.200; 1.32643
1027.82; 1785.300; 1512.800; 7172.800; 1.31745
1031.97; 1798.200; 1525.500; 7291.600; 1.32520
1036.12; 1798.700; 1523.900; 7384.200; 1.32890
1040.27; 1798.600; 1520.100; 7490.500; 1.33118
1044.41; 1805.000; 1522.700; 7585.300; 1.33195
1048.56; 1822.800; 1534.900; 7704.000; 1.33098
1052.70; 1813.000; 1519.500; 7789.500; 1.32966
1056.84; 1826.700; 1529.400; 7905.400; 1.33135
1060.98; 1795.600; 1501.100; 7985.000; 1.34275
1065.11; 1820.500; 1513.900; 8119.500; 1.33334
1069.25; 1836.600; 1526.700; 8264.000; 1.33726
1073.38; 1847.100; 1527.800; 8408.100; 1.33341
1077.52; 1869.100; 1546.500; 8548.800; 1.33658
1081.65; 1856.800; 1532.900; 8683.900; 1.34396
1085.77; 1858.800; 1527.000; 8829.600; 1.34260
1089.90; 1873.100; 1533.700; 8986.900; 1.34163
1094.03; 1845.400; 1500.400; 9113.600; 1.34375
1098.15; 1894.600; 1546.400; 9322.700; 1.34894
1102.27; 1843.600; 1489.800; 9441.600; 1.35171
1106.39; 1891.500; 1527.600; 9661.400; 1.34931
1110.51; 1926.900; 1551.400; 9878.200; 1.34587
1114.63; 1882.700; 1500.800;10067.700; 1.35087
1118.74; 1947.600; 1553.000;10360.700; 1.34871
1122.85; 1926.800; 1530.700;10522.800; 1.35606
1126.96; 1904.500; 1503.600;10642.400; 1.35785
1131.07; 1968.300; 1554.700;10786.500; 1.34871
1135.18; 1912.800; 1504.600;10802.100; 1.35749
1139.29; 1925.900; 1516.000;10868.600; 1.35825
1143.39; 1952.600; 1538.200;10912.400; 1.35451
1147.49; 1925.500; 1518.500;10897.900; 1.36258
1151.59; 1928.200; 1515.000;10914.000; 1.35692
1155.69; 1957.700; 1541.600;10966.800; 1.35509
1159.78; 1917.900; 1502.700;10951.200; 1.35711
1163.88; 1959.500; 1536.300;11019.900; 1.35043
1167.97; 1958.600; 1537.000;11049.100; 1.35338
1172.06; 1931.400; 1514.600;11052.300; 1.35952
1176.15; 1926.700; 1511.400;11073.900; 1.36221
1180.23; 1977.200; 1549.600;11155.900; 1.35152
1184.32; 1920.000; 1494.700;11140.100; 1.35562
1188.40; 1945.000; 1514.000;11201.700; 1.35174
1192.48; 1941.500; 1515.300;11260.500; 1.35918
1196.56; 1954.300; 1521.200;11309.800; 1.35413
1200.64; 1970.500; 1534.600;11380.300; 1.35386
1204.71; 1951.700; 1514.200;11415.100; 1.35470
1208.78; 1958.900; 1522.400;11476.100; 1.35800
1212.85; 1986.300; 1547.900;11559.600; 1.35864
1216.92; 1911.400; 1476.200;11533.500; 1.36379
1220.99; 1980.900; 1534.300;11668.800; 1.35588
1225.05; 1974.200; 1527.500;11719.100; 1.35823
1229.11; 1953.200; 1506.200;11777.200; 1.36131
1233.17; 1987.500; 1537.300;11867.500; 1.36070
1237.23; 1992.300; 1535.100;11935.000; 1.35692
1241.29; 1986.700; 1531.200;11992.800; 1.36111
1245.34; 2018.900; 1560.000;12107.000; 1.36141
1249.39; 1961.800; 1500.000;12117.900; 1.36158
1253.44; 1982.700; 1518.900;12212.500; 1.36279
1257.49; 2023.700; 1552.800;12334.500; 1.35976
1261.53; 1987.300; 1518.900;12369.900; 1.36485
1265.58; 1996.400; 1525.900;12452.600; 1.36593
1269.62; 1999.000; 1519.600;12529.800; 1.36110
1273.65; 2001.600; 1519.900;12603.400; 1.36190
1277.69; 1992.900; 1518.000;12681.800; 1.37121
1281.72; 2019.500; 1530.100;12773.400; 1.36123
1285.76; 2015.700; 1529.900;12851.500; 1.36745
1289.79; 2014.300; 1520.800;12909.400; 1.36318
1293.81; 2010.400; 1511.100;12974.600; 1.36096
1297.84; 1986.800; 1490.200;13004.900; 1.36525
1301.86; 2044.800; 1546.100;13137.300; 1.36629
1305.88; 2014.100; 1520.800;13163.800; 1.37295
1309.90; 2043.400; 1541.300;13243.300; 1.36747
1313.92; 1999.300; 1497.800;13236.900; 1.36936
1317.93; 2033.800; 1527.400;13321.700; 1.36718
1321.94; 2026.200; 1516.400;13349.300; 1.36569
1325.95; 2026.300; 1515.800;13392.300; 1.36669
1329.96; 2048.900; 1527.200;13449.200; 1.35893
1333.96; 2047.200; 1523.500;13501.700; 1.35931
1337.96; 2046.500; 1525.700;13575.100; 1.36429
1341.96; 2053.600; 1530.100;13604.900; 1.36296
1345.96; 2029.000; 1514.800;13535.100; 1.36878
1349.95; 2011.100; 1504.900;13357.000; 1.36947
1353.95; 1994.500; 1500.800;13080.300; 1.37023
1357.94; 2000.900; 1519.000;12810.900; 1.36981
1361.92; 1999.500; 1525.200;12577.700; 1.36741
1365.91; 1970.700; 1509.100;12495.800; 1.37660
1369.89; 1967.300; 1500.900;12522.200; 1.37347
1373.87; 1956.300; 1483.400;12502.700; 1.36738
1377.85; 2001.000; 1541.800;12256.400; 1.36797
1381.82; 1934.500; 1495.800;11839.800; 1.37252
1385.80; 1987.100; 1542.900;11856.600; 1.36584
1389.77; 1968.300; 1524.900;11869.500; 1.36792
1393.74; 1950.300; 1509.900;11804.200; 1.36875
1397.70; 2002.800; 1552.300;11918.000; 1.36190
1401.66; 1974.300; 1522.100;11986.800; 1.36440
1405.62; 1955.900; 1502.000;12055.500; 1.36644
1409.58; 1989.000; 1528.700;12203.600; 1.36532
1413.54; 1986.400; 1519.400;12293.200; 1.36305
1417.49; 1941.300; 1476.800;12292.900; 1.36708
1421.44; 1995.000; 1523.100;12384.600; 1.36204
1425.39; 1980.200; 1510.500;12382.800; 1.36450
1429.33; 2000.500; 1525.700;12395.900; 1.35973
1433.27; 1992.400; 1523.700;12370.200; 1.36439
1437.21; 1969.600; 1502.800;12323.500; 1.36512
1441.15; 2015.500; 1543.700;12339.600; 1.35950
1445.09; 2000.900; 1531.000;12292.800; 1.35988
1449.02; 1954.000; 1489.700;12200.500; 1.36302
1452.95; 1996.800; 1529.700;12230.100; 1.35999
1456.87; 1996.600; 1524.100;12175.900; 1.35302
1460.80; 1975.000; 1510.600;12112.200; 1.35848
1464.72; 1958.100; 1502.500;12023.800; 1.36349
1468.64; 1959.400; 1502.300;11961.600; 1.35949
1472.55; 1973.600; 1518.100;11913.700; 1.35836
1476.47; 1978.500; 1531.300;11884.300; 1.36456
1480.38; 1978.200; 1517.300;11801.000; 1.34854
1484.28; 1985.300; 1535.000;11762.600; 1.35627
1488.19; 1966.000; 1522.200;11690.100; 1.36004
1492.09; 1934.000; 1489.900;11596.700; 1.35713
1495.99; 1948.400; 1506.600;11539.600; 1.35621
1499.89; 1955.100; 1513.300;11504.200; 1.35438
1503.78; 1957.200; 1515.200;11427.600; 1.35076
1507.67; 1974.000; 1539.800;11381.400; 1.35538
1511.56; 1929.600; 1498.300;11268.800; 1.35514
1515.44; 1958.400; 1525.700;11237.600; 1.35112
1519.33; 1943.800; 1515.200;11135.600; 1.35114
1523.21; 1947.600; 1523.900;11078.700; 1.35316
1527.08; 1940.000; 1519.400;10990.300; 1.35252
1530.96; 1924.100; 1500.300;10886.000; 1.34531
1534.83; 1963.000; 1544.300;10845.200; 1.34662
1538.70; 1917.500; 1508.600;10715.900; 1.35252
1542.56; 1903.300; 1500.900;10619.900; 1.35529
1546.42; 1921.600; 1517.300;10554.500; 1.34933
1550.28; 1912.700; 1513.400;10453.100; 1.35002
1554.14; 1912.200; 1508.800;10345.500; 1.34055
1557.99; 1918.200; 1525.700;10266.900; 1.34773
1561.84; 1883.800; 1498.400;10122.900; 1.34982
1565.69; 1901.600; 1516.200;10052.800; 1.34537
1569.54; 1888.100; 1503.300; 9933.900; 1.34062
1573.38; 1874.700; 1501.700; 9824.400; 1.34856
1577.22; 1901.200; 1527.000; 9752.100; 1.34204
1581.05; 1879.300; 1512.400; 9625.200; 1.34462
1584.89; 1888.500; 1524.900; 9522.100; 1.34231
1588.72; 1882.800; 1517.700; 9409.100; 1.33474
1592.54; 1858.400; 1506.200; 9274.600; 1.34354
1596.37; 1877.100; 1517.200; 9177.600; 1.32807
1600.19; 1856.400; 1510.100; 9050.400; 1.33794
1604.01; 1830.400; 1486.400; 8899.400; 1.33344
1607.82; 1842.800; 1509.800; 8796.900; 1.34011
1611.63; 1817.200; 1480.100; 8624.900; 1.32623
1615.44; 1885.700; 1553.300; 8575.400; 1.32481
1619.25; 1808.200; 1486.200; 8361.300; 1.32942
1623.05; 1798.300; 1479.000; 8208.600; 1.32379
1626.85; 1825.200; 1513.000; 8103.300; 1.32447
1630.64; 1833.200; 1524.000; 7969.700; 1.31903
1634.44; 1803.400; 1504.600; 7800.200; 1.32366
1638.23; 1801.500; 1503.300; 7652.600; 1.31432
1642.01; 1796.400; 1506.800; 7500.000; 1.31586
1645.80; 1780.300; 1499.800; 7336.400; 1.31823
1649.58; 1781.000; 1507.600; 7165.100; 1.31583
1653.35; 1826.500; 1554.000; 7043.000; 1.30413
1657.13; 1745.700; 1486.500; 6816.300; 1.31308
1660.90; 1757.000; 1500.200; 6658.700; 1.30293
1664.67; 1734.800; 1492.900; 6464.500; 1.31286
1668.43; 1745.200; 1506.200; 6271.300; 1.29967
1672.19; 1755.400; 1522.100; 6011.600; 1.28428
1675.95; 1708.300; 1493.800; 5613.400; 1.28343
1679.70; 1733.400; 1530.900; 5235.900; 1.26236
1683.46; 1682.200; 1497.800; 4742.900; 1.24547
1687.20; 1673.800; 1511.400; 4295.600; 1.23411
1690.95; 1652.500; 1504.400; 3867.300; 1.20289
1694.69; 1651.600; 1514.400; 3526.700; 1.16634
1698.43; 1602.500; 1482.500; 3185.600; 1.15206
1702.16; 1608.800; 1497.600; 2968.200; 1.12139
1705.89; 1608.700; 1499.300; 2779.100; 1.06812
1709.62; 1585.500; 1493.100; 2618.100; 1.08548
1713.35; 1619.800; 1522.600; 2525.400; 1.01355
1717.07; 1578.700; 1492.000; 2393.400; 1.01690
1720.79; 1602.700; 1513.300; 2338.300; 0.96512
1724.50; 1600.400; 1514.000; 2272.300; 0.94333
1728.21; 1579.700; 1499.400; 2201.400; 0.94162
1731.92; 1572.100; 1495.900; 2152.500; 0.93535
1735.63; 1561.700; 1483.800; 2109.800; 0.90504
1739.33; 1599.400; 1525.100; 2113.700; 0.89883
1743.02; 1571.800; 1493.200; 2053.800; 0.85323
1746.72; 1570.700; 1494.300; 2031.700; 0.84720
1750.41; 1575.300; 1502.900; 2014.600; 0.84928
1754.10; 1585.800; 1515.500; 2011.500; 0.84853

