
Integration time [ms]:  10.000
Averaging Nr. [scans]: 10
Smoothing Nr. [pixels]: 0
Data measured with spectrometer [name]: 1911294U1
Wave   ;Sample   ;Dark     ;Reference;Absorbance
[nm]   ;[counts] ;[counts] ;[counts] ;[A.U]

 860.61; 1628.500; 1551.700; 1907.800; 0.66621
 864.82; 1581.400; 1505.600; 1955.500; 0.77345
 869.02; 1592.800; 1514.900; 2034.000; 0.82371
 873.23; 1613.200; 1530.300; 2122.800; 0.85413
 877.43; 1568.200; 1494.800; 2149.500; 0.95035
 881.63; 1617.100; 1530.800; 2256.000; 0.92445
 885.83; 1596.400; 1499.600; 2300.600; 0.91776
 890.03; 1593.300; 1501.000; 2363.200; 0.97041
 894.23; 1595.900; 1498.400; 2434.200; 0.98218
 898.42; 1583.200; 1490.200; 2489.500; 1.03121
 902.62; 1623.000; 1522.400; 2605.100; 1.03191
 906.81; 1591.900; 1488.700; 2644.500; 1.04920
 911.00; 1601.700; 1494.400; 2732.000; 1.06198
 915.19; 1611.200; 1503.000; 2840.700; 1.09213
 919.38; 1658.200; 1541.400; 2988.000; 1.09291
 923.57; 1595.100; 1477.600; 3060.100; 1.12931
 927.76; 1644.600; 1511.200; 3297.300; 1.12675
 931.94; 1630.100; 1493.300; 3511.600; 1.16890
 936.13; 1667.400; 1516.000; 3764.700; 1.17181
 940.31; 1640.100; 1484.900; 3931.100; 1.19760
 944.49; 1711.600; 1547.000; 4163.000; 1.20121
 948.67; 1691.000; 1518.900; 4297.000; 1.20797
 952.85; 1665.700; 1493.400; 4427.000; 1.23112
 957.03; 1686.600; 1501.100; 4604.000; 1.22342
 961.21; 1705.400; 1518.200; 4778.500; 1.24095
 965.38; 1705.700; 1507.600; 4921.400; 1.23635
 969.55; 1699.400; 1505.800; 5072.200; 1.26532
 973.73; 1731.300; 1520.500; 5253.800; 1.24822
 977.90; 1722.400; 1511.100; 5413.200; 1.26640
 982.06; 1733.500; 1518.800; 5592.700; 1.27818
 986.23; 1739.200; 1506.000; 5748.000; 1.25984
 990.40; 1754.400; 1519.400; 5941.100; 1.27452
 994.56; 1780.500; 1538.400; 6129.700; 1.27794
 998.72; 1787.200; 1541.900; 6290.500; 1.28687
1002.88; 1760.500; 1510.200; 6415.300; 1.29219
1007.04; 1783.600; 1529.400; 6579.000; 1.29808
1011.20; 1787.300; 1519.900; 6717.500; 1.28864
1015.36; 1811.000; 1543.200; 6867.300; 1.29844
1019.51; 1781.800; 1510.000; 6947.400; 1.30114
1023.67; 1800.300; 1530.900; 7080.200; 1.31384
1027.82; 1793.700; 1512.800; 7172.800; 1.30426
1031.97; 1808.700; 1525.500; 7291.600; 1.30879
1036.12; 1808.500; 1523.900; 7384.200; 1.31368
1040.27; 1811.200; 1520.100; 7490.500; 1.31196
1044.41; 1817.000; 1522.700; 7585.300; 1.31387
1048.56; 1834.000; 1534.900; 7704.000; 1.31441
1052.70; 1825.400; 1519.500; 7789.500; 1.31169
1056.84; 1833.600; 1529.400; 7905.400; 1.32139
1060.98; 1803.400; 1501.100; 7985.000; 1.33140
1065.11; 1833.900; 1513.900; 8119.500; 1.31476
1069.25; 1847.100; 1526.700; 8264.000; 1.32279
1073.38; 1858.100; 1527.800; 8408.100; 1.31870
1077.52; 1879.100; 1546.500; 8548.800; 1.32332
1081.65; 1866.600; 1532.900; 8683.900; 1.33101
1085.77; 1874.200; 1527.000; 8829.600; 1.32290
1089.90; 1882.200; 1533.700; 8986.900; 1.33014
1094.03; 1859.700; 1500.400; 9113.600; 1.32611
1098.15; 1907.900; 1546.400; 9322.700; 1.33266
1102.27; 1857.500; 1489.800; 9441.600; 1.33497
1106.39; 1900.100; 1527.600; 9661.400; 1.33917
1110.51; 1939.200; 1551.400; 9878.200; 1.33187
1114.63; 1898.200; 1500.800;10067.700; 1.33360
1118.74; 1960.700; 1553.000;10360.700; 1.33452
1122.85; 1937.700; 1530.700;10522.800; 1.34427
1126.96; 1918.000; 1503.600;10642.400; 1.34347
1131.07; 1981.900; 1554.700;10786.500; 1.33466
1135.18; 1926.300; 1504.600;10802.100; 1.34336
1139.29; 1937.700; 1516.000;10868.600; 1.34593
1143.39; 1967.800; 1538.200;10912.400; 1.33887
1147.49; 1940.200; 1518.500;10897.900; 1.34717
1151.59; 1943.400; 1515.000;10914.000; 1.34123
1155.69; 1971.300; 1541.600;10966.800; 1.34113
1159.78; 1932.500; 1502.700;10951.200; 1.34210
1163.88; 1965.500; 1536.300;11019.900; 1.34431
1167.97; 1972.200; 1537.000;11049.100; 1.33959
1172.06; 1951.300; 1514.600;11052.300; 1.33926
1176.15; 1941.900; 1511.400;11073.900; 1.34660
1180.23; 1984.900; 1549.600;11155.900; 1.34377
1184.32; 1934.100; 1494.700;11140.100; 1.34146
1188.40; 1955.500; 1514.000;11201.700; 1.34129
1192.48; 1962.500; 1515.300;11260.500; 1.33829
1196.56; 1969.800; 1521.200;11309.800; 1.33886
1200.64; 1989.100; 1534.600;11380.300; 1.33571
1204.71; 1961.100; 1514.200;11415.100; 1.34546
1208.78; 1977.800; 1522.400;11476.100; 1.33959
1212.85; 2001.500; 1547.900;11559.600; 1.34383
1216.92; 1928.600; 1476.200;11533.500; 1.34696
1220.99; 1993.200; 1534.300;11668.800; 1.34408
1225.05; 1988.400; 1527.500;11719.100; 1.34464
1229.11; 1970.900; 1506.200;11777.200; 1.34444
1233.17; 2005.700; 1537.300;11867.500; 1.34349
1237.23; 2005.700; 1535.100;11935.000; 1.34438
1241.29; 2003.700; 1531.200;11992.800; 1.34520
1245.34; 2038.900; 1560.000;12107.000; 1.34288
1249.39; 1976.300; 1500.000;12117.900; 1.34816
1253.44; 1998.700; 1518.900;12212.500; 1.34806
1257.49; 2040.300; 1552.800;12334.500; 1.34471
1261.53; 2004.000; 1518.900;12369.900; 1.34964
1265.58; 2013.600; 1525.900;12452.600; 1.35034
1269.62; 2012.500; 1519.600;12529.800; 1.34904
1273.65; 2020.400; 1519.900;12603.400; 1.34527
1277.69; 2010.200; 1518.000;12681.800; 1.35567
1281.72; 2036.800; 1530.100;12773.400; 1.34614
1285.76; 2033.700; 1529.900;12851.500; 1.35165
1289.79; 2029.000; 1520.800;12909.400; 1.35044
1293.81; 2020.000; 1511.100;12974.600; 1.35268
1297.84; 1999.000; 1490.200;13004.900; 1.35471
1301.86; 2063.800; 1546.100;13137.300; 1.35005
1305.88; 2037.900; 1520.800;13163.800; 1.35249
1309.90; 2062.200; 1541.300;13243.300; 1.35151
1313.92; 2015.100; 1497.800;13236.900; 1.35589
1317.93; 2055.300; 1527.400;13321.700; 1.34912
1321.94; 2039.100; 1516.400;13349.300; 1.35484
1325.95; 2041.500; 1515.800;13392.300; 1.35395
1329.96; 2056.600; 1527.200;13449.200; 1.35257
1333.96; 2060.800; 1523.500;13501.700; 1.34817
1337.96; 2058.400; 1525.700;13575.100; 1.35448
1341.96; 2076.000; 1530.100;13604.900; 1.34477
1345.96; 2044.800; 1514.800;13535.100; 1.35564
1349.95; 2027.300; 1504.900;13357.000; 1.35579
1353.95; 2007.900; 1500.800;13080.300; 1.35860
1357.94; 2016.400; 1519.000;12810.900; 1.35606
1361.92; 2009.400; 1525.200;12577.700; 1.35844
1365.91; 1985.800; 1509.100;12495.800; 1.36262
1369.89; 1978.700; 1500.900;12522.200; 1.36299
1373.87; 1968.500; 1483.400;12502.700; 1.35632
1377.85; 2020.600; 1541.800;12256.400; 1.34982
1381.82; 1949.800; 1495.800;11839.800; 1.35763
1385.80; 2001.900; 1542.900;11856.600; 1.35160
1389.77; 1986.400; 1524.900;11869.500; 1.35054
1393.74; 1967.100; 1509.900;11804.200; 1.35249
1397.70; 2014.600; 1552.300;11918.000; 1.35067
1401.66; 1987.100; 1522.100;11986.800; 1.35227
1405.62; 1969.200; 1502.000;12055.500; 1.35389
1409.58; 2004.300; 1528.700;12203.600; 1.35112
1413.54; 2003.000; 1519.400;12293.200; 1.34788
1417.49; 1955.700; 1476.800;12292.900; 1.35383
1421.44; 2012.100; 1523.100;12384.600; 1.34658
1425.39; 1994.300; 1510.500;12382.800; 1.35166
1429.33; 2015.600; 1525.700;12395.900; 1.34613
1433.27; 2011.000; 1523.700;12370.200; 1.34749
1437.21; 1989.900; 1502.800;12323.500; 1.34664
1441.15; 2027.700; 1543.700;12339.600; 1.34841
1445.09; 2013.600; 1531.000;12292.800; 1.34830
1449.02; 1967.300; 1489.700;12200.500; 1.35076
1452.95; 2014.900; 1529.700;12230.100; 1.34348
1456.87; 2009.100; 1524.100;12175.900; 1.34168
1460.80; 1992.500; 1510.600;12112.200; 1.34241
1464.72; 1973.000; 1502.500;12023.800; 1.34951
1468.64; 1973.100; 1502.300;11961.600; 1.34667
1472.55; 1991.000; 1518.100;11913.700; 1.34208
1476.47; 1999.000; 1531.300;11884.300; 1.34510
1480.38; 1989.500; 1517.300;11801.000; 1.33802
1484.28; 1997.100; 1535.000;11762.600; 1.34504
1488.19; 1986.700; 1522.200;11690.100; 1.34025
1492.09; 1950.500; 1489.900;11596.700; 1.34129
1495.99; 1964.700; 1506.600;11539.600; 1.34047
1499.89; 1968.300; 1513.300;11504.200; 1.34159
1503.78; 1969.700; 1515.200;11427.600; 1.33864
1507.67; 1990.000; 1539.800;11381.400; 1.33966
1511.56; 1948.100; 1498.300;11268.800; 1.33690
1515.44; 1968.100; 1525.700;11237.600; 1.34149
1519.33; 1956.500; 1515.200;11135.600; 1.33846
1523.21; 1964.600; 1523.900;11078.700; 1.33608
1527.08; 1954.500; 1519.400;10990.300; 1.33780
1530.96; 1936.000; 1500.300;10886.000; 1.33328
1534.83; 1976.600; 1544.300;10845.200; 1.33274
1538.70; 1937.600; 1508.600;10715.900; 1.33167
1542.56; 1914.100; 1500.900;10619.900; 1.34379
1546.42; 1938.600; 1517.300;10554.500; 1.33144
1550.28; 1930.100; 1513.400;10453.100; 1.33150
1554.14; 1923.800; 1508.800;10345.500; 1.32824
1557.99; 1930.900; 1525.700;10266.900; 1.33390
1561.84; 1899.000; 1498.400;10122.900; 1.33302
1565.69; 1910.200; 1516.200;10052.800; 1.33579
1569.54; 1899.500; 1503.300; 9933.900; 1.32794
1573.38; 1893.300; 1501.700; 9824.400; 1.32742
1577.22; 1917.800; 1527.000; 9752.100; 1.32319
1581.05; 1900.400; 1512.400; 9625.200; 1.32034
1584.89; 1904.400; 1524.900; 9522.100; 1.32373
1588.72; 1894.400; 1517.700; 9409.100; 1.32116
1592.54; 1865.900; 1506.200; 9274.600; 1.33439
1596.37; 1889.400; 1517.200; 9177.600; 1.31348
1600.19; 1870.400; 1510.100; 9050.400; 1.32072
1604.01; 1841.700; 1486.400; 8899.400; 1.31940
1607.82; 1858.900; 1509.800; 8796.900; 1.31960
1611.63; 1823.200; 1480.100; 8624.900; 1.31857
1615.44; 1890.900; 1553.300; 8575.400; 1.31806
1619.25; 1816.200; 1486.200; 8361.300; 1.31877
1623.05; 1803.300; 1479.000; 8208.600; 1.31704
1626.85; 1836.700; 1513.000; 8103.300; 1.30876
1630.64; 1843.000; 1524.000; 7969.700; 1.30548
1634.44; 1810.300; 1504.600; 7800.200; 1.31374
1638.23; 1808.300; 1503.300; 7652.600; 1.30453
1642.01; 1811.500; 1506.800; 7500.000; 1.29379
1645.80; 1788.700; 1499.800; 7336.400; 1.30541
1649.58; 1790.400; 1507.600; 7165.100; 1.30115
1653.35; 1830.800; 1554.000; 7043.000; 1.29733
1657.13; 1754.500; 1486.500; 6816.300; 1.29858
1660.90; 1766.400; 1500.200; 6658.700; 1.28732
1664.67; 1739.700; 1492.900; 6464.500; 1.30415
1668.43; 1755.700; 1506.200; 6271.300; 1.28100
1672.19; 1764.400; 1522.100; 6011.600; 1.26784
1675.95; 1714.300; 1493.800; 5613.400; 1.27145
1679.70; 1739.600; 1530.900; 5235.900; 1.24927
1683.46; 1688.200; 1497.800; 4742.900; 1.23156
1687.20; 1681.400; 1511.400; 4295.600; 1.21425
1690.95; 1656.500; 1504.400; 3867.300; 1.19132
1694.69; 1654.200; 1514.400; 3526.700; 1.15819
1698.43; 1606.600; 1482.500; 3185.600; 1.13747
1702.16; 1614.700; 1497.600; 2968.200; 1.09894
1705.89; 1612.500; 1499.300; 2779.100; 1.05330
1709.62; 1591.800; 1493.100; 2618.100; 1.05684
1713.35; 1622.800; 1522.600; 2525.400; 1.00035
1717.07; 1582.200; 1492.000; 2393.400; 0.99971
1720.79; 1607.800; 1513.300; 2338.300; 0.94102
1724.50; 1606.100; 1514.000; 2272.300; 0.91558
1728.21; 1587.200; 1499.400; 2201.400; 0.90284
1731.92; 1580.500; 1495.900; 2152.500; 0.88993
1735.63; 1568.100; 1483.800; 2109.800; 0.87075
1739.33; 1608.800; 1525.100; 2113.700; 0.84709
1743.02; 1578.600; 1493.200; 2053.800; 0.81720
1746.72; 1572.500; 1494.300; 2031.700; 0.83709
1750.41; 1585.000; 1502.900; 2014.600; 0.79467
1754.10; 1590.000; 1515.500; 2011.500; 0.82333

