
Integration time [ms]:  10.000
Averaging Nr. [scans]: 10
Smoothing Nr. [pixels]: 0
Data measured with spectrometer [name]: 1911294U1
Wave   ;Sample   ;Dark     ;Reference;Absorbance
[nm]   ;[counts] ;[counts] ;[counts] ;[A.U]

 860.61; 1637.300; 1551.700; 1907.800; 0.61910
 864.82; 1588.800; 1505.600; 1955.500; 0.73299
 869.02; 1597.200; 1514.900; 2034.000; 0.79985
 873.23; 1624.800; 1530.300; 2122.800; 0.79726
 877.43; 1575.900; 1494.800; 2149.500; 0.90702
 881.63; 1624.000; 1530.800; 2256.000; 0.89104
 885.83; 1593.500; 1499.600; 2300.600; 0.93097
 890.03; 1601.400; 1501.000; 2363.200; 0.93387
 894.23; 1606.900; 1498.400; 2434.200; 0.93575
 898.42; 1586.400; 1490.200; 2489.500; 1.01652
 902.62; 1633.100; 1522.400; 2605.100; 0.99036
 906.81; 1593.900; 1488.700; 2644.500; 1.04087
 911.00; 1608.800; 1494.400; 2732.000; 1.03415
 915.19; 1611.900; 1503.000; 2840.700; 1.08933
 919.38; 1660.600; 1541.400; 2988.000; 1.08407
 923.57; 1602.000; 1477.600; 3060.100; 1.10452
 927.76; 1646.100; 1511.200; 3297.300; 1.12189
 931.94; 1632.800; 1493.300; 3511.600; 1.16041
 936.13; 1666.500; 1516.000; 3764.700; 1.17440
 940.31; 1637.600; 1484.900; 3931.100; 1.20465
 944.49; 1715.000; 1547.000; 4163.000; 1.19233
 948.67; 1692.300; 1518.900; 4297.000; 1.20470
 952.85; 1670.900; 1493.400; 4427.000; 1.21820
 957.03; 1689.500; 1501.100; 4604.000; 1.21669
 961.21; 1707.300; 1518.200; 4778.500; 1.23657
 965.38; 1700.900; 1507.600; 4921.400; 1.24701
 969.55; 1700.700; 1505.800; 5072.200; 1.26242
 973.73; 1732.200; 1520.500; 5253.800; 1.24637
 977.90; 1726.900; 1511.100; 5413.200; 1.25725
 982.06; 1737.900; 1518.800; 5592.700; 1.26937
 986.23; 1736.300; 1506.000; 5748.000; 1.26528
 990.40; 1755.700; 1519.400; 5941.100; 1.27213
 994.56; 1780.500; 1538.400; 6129.700; 1.27794
 998.72; 1787.200; 1541.900; 6290.500; 1.28687
1002.88; 1762.800; 1510.200; 6415.300; 1.28821
1007.04; 1783.000; 1529.400; 6579.000; 1.29911
1011.20; 1783.300; 1519.900; 6717.500; 1.29519
1015.36; 1812.000; 1543.200; 6867.300; 1.29682
1019.51; 1784.400; 1510.000; 6947.400; 1.29701
1023.67; 1803.800; 1530.900; 7080.200; 1.30823
1027.82; 1795.300; 1512.800; 7172.800; 1.30180
1031.97; 1807.500; 1525.500; 7291.600; 1.31063
1036.12; 1807.400; 1523.900; 7384.200; 1.31537
1040.27; 1811.200; 1520.100; 7490.500; 1.31196
1044.41; 1815.500; 1522.700; 7585.300; 1.31609
1048.56; 1832.900; 1534.900; 7704.000; 1.31601
1052.70; 1826.800; 1519.500; 7789.500; 1.30970
1056.84; 1834.000; 1529.400; 7905.400; 1.32082
1060.98; 1805.800; 1501.100; 7985.000; 1.32796
1065.11; 1829.100; 1513.900; 8119.500; 1.32133
1069.25; 1850.200; 1526.700; 8264.000; 1.31861
1073.38; 1859.000; 1527.800; 8408.100; 1.31752
1077.52; 1876.100; 1546.500; 8548.800; 1.32725
1081.65; 1868.200; 1532.900; 8683.900; 1.32893
1085.77; 1869.400; 1527.000; 8829.600; 1.32894
1089.90; 1883.700; 1533.700; 8986.900; 1.32827
1094.03; 1858.300; 1500.400; 9113.600; 1.32781
1098.15; 1901.300; 1546.400; 9322.700; 1.34067
1102.27; 1851.300; 1489.800; 9441.600; 1.34236
1106.39; 1898.600; 1527.600; 9661.400; 1.34092
1110.51; 1936.000; 1551.400; 9878.200; 1.33547
1114.63; 1893.700; 1500.800;10067.700; 1.33854
1118.74; 1954.500; 1553.000;10360.700; 1.34118
1122.85; 1932.900; 1530.700;10522.800; 1.34942
1126.96; 1916.000; 1503.600;10642.400; 1.34557
1131.07; 1978.900; 1554.700;10786.500; 1.33772
1135.18; 1922.000; 1504.600;10802.100; 1.34781
1139.29; 1937.500; 1516.000;10868.600; 1.34613
1143.39; 1960.400; 1538.200;10912.400; 1.34642
1147.49; 1938.100; 1518.500;10897.900; 1.34934
1151.59; 1936.900; 1515.000;10914.000; 1.34787
1155.69; 1966.900; 1541.600;10966.800; 1.34560
1159.78; 1922.800; 1502.700;10951.200; 1.35201
1163.88; 1963.600; 1536.300;11019.900; 1.34624
1167.97; 1966.800; 1537.000;11049.100; 1.34501
1172.06; 1946.000; 1514.600;11052.300; 1.34456
1176.15; 1940.000; 1511.400;11073.900; 1.34852
1180.23; 1991.000; 1549.600;11155.900; 1.33772
1184.32; 1933.300; 1494.700;11140.100; 1.34225
1188.40; 1946.900; 1514.000;11201.700; 1.34983
1192.48; 1952.400; 1515.300;11260.500; 1.34821
1196.56; 1960.500; 1521.200;11309.800; 1.34796
1200.64; 1985.500; 1534.600;11380.300; 1.33917
1204.71; 1954.600; 1514.200;11415.100; 1.35183
1208.78; 1968.500; 1522.400;11476.100; 1.34855
1212.85; 1994.700; 1547.900;11559.600; 1.35039
1216.92; 1913.900; 1476.200;11533.500; 1.36130
1220.99; 1986.800; 1534.300;11668.800; 1.35018
1225.05; 1983.100; 1527.500;11719.100; 1.34966
1229.11; 1960.100; 1506.200;11777.200; 1.35465
1233.17; 1996.900; 1537.300;11867.500; 1.35173
1237.23; 2000.900; 1535.100;11935.000; 1.34883
1241.29; 1997.400; 1531.200;11992.800; 1.35103
1245.34; 2027.500; 1560.000;12107.000; 1.35335
1249.39; 1965.700; 1500.000;12117.900; 1.35793
1253.44; 1993.100; 1518.900;12212.500; 1.35316
1257.49; 2025.100; 1552.800;12334.500; 1.35847
1261.53; 1999.400; 1518.900;12369.900; 1.35378
1265.58; 2008.600; 1525.900;12452.600; 1.35481
1269.62; 2006.600; 1519.600;12529.800; 1.35427
1273.65; 2011.100; 1519.900;12603.400; 1.35342
1277.69; 2008.500; 1518.000;12681.800; 1.35717
1281.72; 2027.200; 1530.100;12773.400; 1.35445
1285.76; 2026.400; 1529.900;12851.500; 1.35799
1289.79; 2021.400; 1520.800;12909.400; 1.35698
1293.81; 2015.400; 1511.100;12974.600; 1.35663
1297.84; 1994.800; 1490.200;13004.900; 1.35831
1301.86; 2058.800; 1546.100;13137.300; 1.35427
1305.88; 2031.900; 1520.800;13163.800; 1.35756
1309.90; 2054.900; 1541.300;13243.300; 1.35764
1313.92; 2006.200; 1497.800;13236.900; 1.36343
1317.93; 2045.800; 1527.400;13321.700; 1.35701
1321.94; 2032.700; 1516.400;13349.300; 1.36019
1325.95; 2034.400; 1515.800;13392.300; 1.35986
1329.96; 2053.900; 1527.200;13449.200; 1.35479
1333.96; 2051.600; 1523.500;13501.700; 1.35568
1337.96; 2056.000; 1525.700;13575.100; 1.35644
1341.96; 2066.700; 1530.100;13604.900; 1.35223
1345.96; 2036.800; 1514.800;13535.100; 1.36224
1349.95; 2024.100; 1504.900;13357.000; 1.35846
1353.95; 2003.900; 1500.800;13080.300; 1.36204
1357.94; 2007.900; 1519.000;12810.900; 1.36355
1361.92; 2003.100; 1525.200;12577.700; 1.36412
1365.91; 1980.900; 1509.100;12495.800; 1.36711
1369.89; 1976.200; 1500.900;12522.200; 1.36527
1373.87; 1961.300; 1483.400;12502.700; 1.36282
1377.85; 2010.900; 1541.800;12256.400; 1.35871
1381.82; 1943.000; 1495.800;11839.800; 1.36419
1385.80; 1995.000; 1542.900;11856.600; 1.35818
1389.77; 1985.600; 1524.900;11869.500; 1.35130
1393.74; 1959.900; 1509.900;11804.200; 1.35938
1397.70; 2009.500; 1552.300;11918.000; 1.35549
1401.66; 1985.400; 1522.100;11986.800; 1.35386
1405.62; 1964.700; 1502.000;12055.500; 1.35810
1409.58; 1995.800; 1528.700;12203.600; 1.35895
1413.54; 1998.800; 1519.400;12293.200; 1.35167
1417.49; 1950.900; 1476.800;12292.900; 1.35820
1421.44; 2005.300; 1523.100;12384.600; 1.35266
1425.39; 1995.800; 1510.500;12382.800; 1.35031
1429.33; 2012.400; 1525.700;12395.900; 1.34898
1433.27; 2004.200; 1523.700;12370.200; 1.35360
1437.21; 1979.900; 1502.800;12323.500; 1.35565
1441.15; 2028.800; 1543.700;12339.600; 1.34743
1445.09; 2014.700; 1531.000;12292.800; 1.34731
1449.02; 1963.400; 1489.700;12200.500; 1.35432
1452.95; 2009.800; 1529.700;12230.100; 1.34807
1456.87; 2007.700; 1524.100;12175.900; 1.34294
1460.80; 1986.400; 1510.600;12112.200; 1.34795
1464.72; 1971.800; 1502.500;12023.800; 1.35062
1468.64; 1976.600; 1502.300;11961.600; 1.34345
1472.55; 1985.900; 1518.100;11913.700; 1.34679
1476.47; 1995.100; 1531.300;11884.300; 1.34874
1480.38; 1987.900; 1517.300;11801.000; 1.33950
1484.28; 1997.900; 1535.000;11762.600; 1.34429
1488.19; 1980.400; 1522.200;11690.100; 1.34618
1492.09; 1946.000; 1489.900;11596.700; 1.34555
1495.99; 1960.700; 1506.600;11539.600; 1.34428
1499.89; 1972.200; 1513.300;11504.200; 1.33789
1503.78; 1967.600; 1515.200;11427.600; 1.34066
1507.67; 1986.700; 1539.800;11381.400; 1.34286
1511.56; 1942.400; 1498.300;11268.800; 1.34244
1515.44; 1970.700; 1525.700;11237.600; 1.33894
1519.33; 1952.300; 1515.200;11135.600; 1.34261
1523.21; 1962.700; 1523.900;11078.700; 1.33795
1527.08; 1951.800; 1519.400;10990.300; 1.34051
1530.96; 1933.700; 1500.300;10886.000; 1.33558
1534.83; 1974.100; 1544.300;10845.200; 1.33526
1538.70; 1931.200; 1508.600;10715.900; 1.33820
1542.56; 1916.600; 1500.900;10619.900; 1.34117
1546.42; 1932.800; 1517.300;10554.500; 1.33746
1550.28; 1925.200; 1513.400;10453.100; 1.33664
1554.14; 1921.900; 1508.800;10345.500; 1.33023
1557.99; 1934.300; 1525.700;10266.900; 1.33027
1561.84; 1893.900; 1498.400;10122.900; 1.33859
1565.69; 1907.900; 1516.200;10052.800; 1.33833
1569.54; 1902.000; 1503.300; 9933.900; 1.32521
1573.38; 1887.900; 1501.700; 9824.400; 1.33345
1577.22; 1913.500; 1527.000; 9752.100; 1.32799
1581.05; 1890.400; 1512.400; 9625.200; 1.33168
1584.89; 1905.600; 1524.900; 9522.100; 1.32236
1588.72; 1893.800; 1517.700; 9409.100; 1.32185
1592.54; 1871.200; 1506.200; 9274.600; 1.32804
1596.37; 1885.800; 1517.200; 9177.600; 1.31770
1600.19; 1869.700; 1510.100; 9050.400; 1.32157
1604.01; 1841.400; 1486.400; 8899.400; 1.31977
1607.82; 1851.500; 1509.800; 8796.900; 1.32891
1611.63; 1823.300; 1480.100; 8624.900; 1.31844
1615.44; 1894.600; 1553.300; 8575.400; 1.31333
1619.25; 1818.400; 1486.200; 8361.300; 1.31588
1623.05; 1804.200; 1479.000; 8208.600; 1.31584
1626.85; 1832.700; 1513.000; 8103.300; 1.31416
1630.64; 1842.300; 1524.000; 7969.700; 1.30643
1634.44; 1814.400; 1504.600; 7800.200; 1.30796
1638.23; 1810.700; 1503.300; 7652.600; 1.30112
1642.01; 1802.700; 1506.800; 7500.000; 1.30651
1645.80; 1789.500; 1499.800; 7336.400; 1.30421
1649.58; 1792.400; 1507.600; 7165.100; 1.29808
1653.35; 1832.700; 1554.000; 7043.000; 1.29436
1657.13; 1758.200; 1486.500; 6816.300; 1.29262
1660.90; 1764.000; 1500.200; 6658.700; 1.29125
1664.67; 1745.800; 1492.900; 6464.500; 1.29355
1668.43; 1753.900; 1506.200; 6271.300; 1.28415
1672.19; 1764.900; 1522.100; 6011.600; 1.26695
1675.95; 1716.000; 1493.800; 5613.400; 1.26811
1679.70; 1746.600; 1530.900; 5235.900; 1.23494
1683.46; 1686.700; 1497.800; 4742.900; 1.23500
1687.20; 1682.800; 1511.400; 4295.600; 1.21069
1690.95; 1663.500; 1504.400; 3867.300; 1.17178
1694.69; 1656.200; 1514.400; 3526.700; 1.15202
1698.43; 1611.600; 1482.500; 3185.600; 1.12031
1702.16; 1617.300; 1497.600; 2968.200; 1.08940
1705.89; 1612.900; 1499.300; 2779.100; 1.05176
1709.62; 1593.500; 1493.100; 2618.100; 1.04942
1713.35; 1630.700; 1522.600; 2525.400; 0.96739
1717.07; 1582.400; 1492.000; 2393.400; 0.99875
1720.79; 1608.000; 1513.300; 2338.300; 0.94010
1724.50; 1611.200; 1514.000; 2272.300; 0.89217
1728.21; 1581.900; 1499.400; 2201.400; 0.92988
1731.92; 1581.700; 1495.900; 2152.500; 0.88381
1735.63; 1573.200; 1483.800; 2109.800; 0.84524
1739.33; 1614.100; 1525.100; 2113.700; 0.82043
1743.02; 1588.000; 1493.200; 2053.800; 0.77184
1746.72; 1584.100; 1494.300; 2031.700; 0.77702
1750.41; 1588.500; 1502.900; 2014.600; 0.77654
1754.10; 1594.100; 1515.500; 2011.500; 0.80006

