
Integration time [ms]:  10.000
Averaging Nr. [scans]: 10
Smoothing Nr. [pixels]: 0
Data measured with spectrometer [name]: 1911294U1
Wave   ;Sample   ;Dark     ;Reference;Absorbance
[nm]   ;[counts] ;[counts] ;[counts] ;[A.U]

 860.61; 1626.600; 1551.700; 1907.800; 0.67709
 864.82; 1582.000; 1505.600; 1955.500; 0.77002
 869.02; 1591.800; 1514.900; 2034.000; 0.82932
 873.23; 1619.000; 1530.300; 2122.800; 0.82476
 877.43; 1571.800; 1494.800; 2149.500; 0.92955
 881.63; 1613.600; 1530.800; 2256.000; 0.94243
 885.83; 1590.900; 1499.600; 2300.600; 0.94316
 890.03; 1593.000; 1501.000; 2363.200; 0.97182
 894.23; 1594.000; 1498.400; 2434.200; 0.99073
 898.42; 1581.000; 1490.200; 2489.500; 1.04161
 902.62; 1624.400; 1522.400; 2605.100; 1.02591
 906.81; 1590.200; 1488.700; 2644.500; 1.05642
 911.00; 1602.000; 1494.400; 2732.000; 1.06077
 915.19; 1608.300; 1503.000; 2840.700; 1.10393
 919.38; 1659.300; 1541.400; 2988.000; 1.08883
 923.57; 1597.800; 1477.600; 3060.100; 1.11944
 927.76; 1643.300; 1511.200; 3297.300; 1.13100
 931.94; 1631.200; 1493.300; 3511.600; 1.16542
 936.13; 1667.200; 1516.000; 3764.700; 1.17238
 940.31; 1636.900; 1484.900; 3931.100; 1.20665
 944.49; 1710.800; 1547.000; 4163.000; 1.20332
 948.67; 1691.300; 1518.900; 4297.000; 1.20721
 952.85; 1665.800; 1493.400; 4427.000; 1.23086
 957.03; 1686.300; 1501.100; 4604.000; 1.22413
 961.21; 1705.700; 1518.200; 4778.500; 1.24026
 965.38; 1706.800; 1507.600; 4921.400; 1.23395
 969.55; 1702.600; 1505.800; 5072.200; 1.25820
 973.73; 1729.400; 1520.500; 5253.800; 1.25215
 977.90; 1723.900; 1511.100; 5413.200; 1.26333
 982.06; 1740.400; 1518.800; 5592.700; 1.26444
 986.23; 1735.200; 1506.000; 5748.000; 1.26736
 990.40; 1754.500; 1519.400; 5941.100; 1.27434
 994.56; 1783.600; 1538.400; 6129.700; 1.27242
 998.72; 1791.200; 1541.900; 6290.500; 1.27984
1002.88; 1761.800; 1510.200; 6415.300; 1.28994
1007.04; 1790.300; 1529.400; 6579.000; 1.28678
1011.20; 1784.300; 1519.900; 6717.500; 1.29354
1015.36; 1817.200; 1543.200; 6867.300; 1.28850
1019.51; 1781.800; 1510.000; 6947.400; 1.30114
1023.67; 1805.500; 1530.900; 7080.200; 1.30554
1027.82; 1796.600; 1512.800; 7172.800; 1.29980
1031.97; 1813.200; 1525.500; 7291.600; 1.30194
1036.12; 1811.800; 1523.900; 7384.200; 1.30868
1040.27; 1811.700; 1520.100; 7490.500; 1.31122
1044.41; 1820.700; 1522.700; 7585.300; 1.30844
1048.56; 1837.700; 1534.900; 7704.000; 1.30907
1052.70; 1826.200; 1519.500; 7789.500; 1.31055
1056.84; 1839.000; 1529.400; 7905.400; 1.31375
1060.98; 1810.700; 1501.100; 7985.000; 1.32104
1065.11; 1832.700; 1513.900; 8119.500; 1.31639
1069.25; 1852.500; 1526.700; 8264.000; 1.31553
1073.38; 1857.200; 1527.800; 8408.100; 1.31988
1077.52; 1878.800; 1546.500; 8548.800; 1.32371
1081.65; 1870.600; 1532.900; 8683.900; 1.32584
1085.77; 1874.400; 1527.000; 8829.600; 1.32265
1089.90; 1884.200; 1533.700; 8986.900; 1.32765
1094.03; 1858.100; 1500.400; 9113.600; 1.32805
1098.15; 1907.100; 1546.400; 9322.700; 1.33363
1102.27; 1856.100; 1489.800; 9441.600; 1.33663
1106.39; 1906.800; 1527.600; 9661.400; 1.33143
1110.51; 1938.300; 1551.400; 9878.200; 1.33288
1114.63; 1895.600; 1500.800;10067.700; 1.33645
1118.74; 1964.000; 1553.000;10360.700; 1.33102
1122.85; 1940.600; 1530.700;10522.800; 1.34118
1126.96; 1916.700; 1503.600;10642.400; 1.34483
1131.07; 1980.300; 1554.700;10786.500; 1.33628
1135.18; 1924.100; 1504.600;10802.100; 1.34563
1139.29; 1944.500; 1516.000;10868.600; 1.33898
1143.39; 1968.300; 1538.200;10912.400; 1.33836
1147.49; 1941.300; 1518.500;10897.900; 1.34604
1151.59; 1940.200; 1515.000;10914.000; 1.34449
1155.69; 1972.300; 1541.600;10966.800; 1.34012
1159.78; 1931.100; 1502.700;10951.200; 1.34351
1163.88; 1970.100; 1536.300;11019.900; 1.33968
1167.97; 1967.100; 1537.000;11049.100; 1.34471
1172.06; 1949.300; 1514.600;11052.300; 1.34125
1176.15; 1951.200; 1511.400;11073.900; 1.33732
1180.23; 1987.600; 1549.600;11155.900; 1.34108
1184.32; 1932.700; 1494.700;11140.100; 1.34285
1188.40; 1957.900; 1514.000;11201.700; 1.33894
1192.48; 1961.500; 1515.300;11260.500; 1.33926
1196.56; 1964.100; 1521.200;11309.800; 1.34441
1200.64; 1984.800; 1534.600;11380.300; 1.33984
1204.71; 1962.700; 1514.200;11415.100; 1.34391
1208.78; 1976.400; 1522.400;11476.100; 1.34093
1212.85; 1998.900; 1547.900;11559.600; 1.34633
1216.92; 1924.500; 1476.200;11533.500; 1.35091
1220.99; 1992.100; 1534.300;11668.800; 1.34513
1225.05; 1988.300; 1527.500;11719.100; 1.34473
1229.11; 1967.400; 1506.200;11777.200; 1.34772
1233.17; 2002.600; 1537.300;11867.500; 1.34638
1237.23; 2001.000; 1535.100;11935.000; 1.34874
1241.29; 2000.500; 1531.200;11992.800; 1.34815
1245.34; 2032.800; 1560.000;12107.000; 1.34845
1249.39; 1973.800; 1500.000;12117.900; 1.35044
1253.44; 1997.500; 1518.900;12212.500; 1.34915
1257.49; 2035.200; 1552.800;12334.500; 1.34928
1261.53; 2001.400; 1518.900;12369.900; 1.35197
1265.58; 2011.900; 1525.900;12452.600; 1.35185
1269.62; 2010.300; 1519.600;12529.800; 1.35098
1273.65; 2018.000; 1519.900;12603.400; 1.34736
1277.69; 2014.500; 1518.000;12681.800; 1.35189
1281.72; 2033.300; 1530.100;12773.400; 1.34915
1285.76; 2036.600; 1529.900;12851.500; 1.34916
1289.79; 2027.700; 1520.800;12909.400; 1.35155
1293.81; 2018.000; 1511.100;12974.600; 1.35439
1297.84; 2002.500; 1490.200;13004.900; 1.35173
1301.86; 2059.100; 1546.100;13137.300; 1.35401
1305.88; 2031.600; 1520.800;13163.800; 1.35781
1309.90; 2060.100; 1541.300;13243.300; 1.35326
1313.92; 2012.200; 1497.800;13236.900; 1.35833
1317.93; 2043.500; 1527.400;13321.700; 1.35894
1321.94; 2040.300; 1516.400;13349.300; 1.35384
1325.95; 2041.900; 1515.800;13392.300; 1.35362
1329.96; 2059.100; 1527.200;13449.200; 1.35052
1333.96; 2058.200; 1523.500;13501.700; 1.35028
1337.96; 2059.000; 1525.700;13575.100; 1.35399
1341.96; 2069.200; 1530.100;13604.900; 1.35021
1345.96; 2042.800; 1514.800;13535.100; 1.35728
1349.95; 2027.000; 1504.900;13357.000; 1.35604
1353.95; 2005.200; 1500.800;13080.300; 1.36091
1357.94; 2014.700; 1519.000;12810.900; 1.35755
1361.92; 2007.600; 1525.200;12577.700; 1.36005
1365.91; 1984.400; 1509.100;12495.800; 1.36390
1369.89; 1981.600; 1500.900;12522.200; 1.36036
1373.87; 1966.800; 1483.400;12502.700; 1.35785
1377.85; 2015.400; 1541.800;12256.400; 1.35456
1381.82; 1945.900; 1495.800;11839.800; 1.36138
1385.80; 2000.700; 1542.900;11856.600; 1.35274
1389.77; 1988.200; 1524.900;11869.500; 1.34885
1393.74; 1963.800; 1509.900;11804.200; 1.35564
1397.70; 2011.800; 1552.300;11918.000; 1.35331
1401.66; 1986.300; 1522.100;11986.800; 1.35302
1405.62; 1964.700; 1502.000;12055.500; 1.35810
1409.58; 2001.800; 1528.700;12203.600; 1.35341
1413.54; 1997.300; 1519.400;12293.200; 1.35303
1417.49; 1951.800; 1476.800;12292.900; 1.35738
1421.44; 2010.300; 1523.100;12384.600; 1.34818
1425.39; 1995.300; 1510.500;12382.800; 1.35076
1429.33; 2014.700; 1525.700;12395.900; 1.34693
1433.27; 2006.800; 1523.700;12370.200; 1.35125
1437.21; 1982.600; 1502.800;12323.500; 1.35320
1441.15; 2032.000; 1543.700;12339.600; 1.34457
1445.09; 2013.900; 1531.000;12292.800; 1.34803
1449.02; 1964.000; 1489.700;12200.500; 1.35377
1452.95; 2014.200; 1529.700;12230.100; 1.34411
1456.87; 2008.500; 1524.100;12175.900; 1.34222
1460.80; 1989.000; 1510.600;12112.200; 1.34558
1464.72; 1975.800; 1502.500;12023.800; 1.34693
1468.64; 1974.500; 1502.300;11961.600; 1.34538
1472.55; 1988.100; 1518.100;11913.700; 1.34475
1476.47; 1996.200; 1531.300;11884.300; 1.34771
1480.38; 1991.100; 1517.300;11801.000; 1.33655
1484.28; 1999.700; 1535.000;11762.600; 1.34260
1488.19; 1985.500; 1522.200;11690.100; 1.34137
1492.09; 1943.700; 1489.900;11596.700; 1.34775
1495.99; 1963.200; 1506.600;11539.600; 1.34189
1499.89; 1973.800; 1513.300;11504.200; 1.33637
1503.78; 1967.300; 1515.200;11427.600; 1.34094
1507.67; 1991.900; 1539.800;11381.400; 1.33783
1511.56; 1943.400; 1498.300;11268.800; 1.34146
1515.44; 1972.300; 1525.700;11237.600; 1.33739
1519.33; 1956.700; 1515.200;11135.600; 1.33826
1523.21; 1961.100; 1523.900;11078.700; 1.33954
1527.08; 1953.100; 1519.400;10990.300; 1.33920
1530.96; 1936.700; 1500.300;10886.000; 1.33258
1534.83; 1972.600; 1544.300;10845.200; 1.33678
1538.70; 1935.000; 1508.600;10715.900; 1.33432
1542.56; 1915.200; 1500.900;10619.900; 1.34263
1546.42; 1932.800; 1517.300;10554.500; 1.33746
1550.28; 1924.400; 1513.400;10453.100; 1.33748
1554.14; 1923.600; 1508.800;10345.500; 1.32845
1557.99; 1934.700; 1525.700;10266.900; 1.32985
1561.84; 1898.800; 1498.400;10122.900; 1.33324
1565.69; 1908.600; 1516.200;10052.800; 1.33756
1569.54; 1902.000; 1503.300; 9933.900; 1.32521
1573.38; 1891.900; 1501.700; 9824.400; 1.32898
1577.22; 1914.000; 1527.000; 9752.100; 1.32743
1581.05; 1894.100; 1512.400; 9625.200; 1.32745
1584.89; 1898.900; 1524.900; 9522.100; 1.33007
1588.72; 1893.400; 1517.700; 9409.100; 1.32231
1592.54; 1865.300; 1506.200; 9274.600; 1.33512
1596.37; 1886.200; 1517.200; 9177.600; 1.31723
1600.19; 1870.400; 1510.100; 9050.400; 1.32072
1604.01; 1840.800; 1486.400; 8899.400; 1.32050
1607.82; 1851.900; 1509.800; 8796.900; 1.32840
1611.63; 1822.600; 1480.100; 8624.900; 1.31933
1615.44; 1891.400; 1553.300; 8575.400; 1.31742
1619.25; 1816.100; 1486.200; 8361.300; 1.31890
1623.05; 1803.300; 1479.000; 8208.600; 1.31704
1626.85; 1836.900; 1513.000; 8103.300; 1.30849
1630.64; 1843.000; 1524.000; 7969.700; 1.30548
1634.44; 1813.800; 1504.600; 7800.200; 1.30880
1638.23; 1809.800; 1503.300; 7652.600; 1.30240
1642.01; 1804.100; 1506.800; 7500.000; 1.30446
1645.80; 1789.600; 1499.800; 7336.400; 1.30406
1649.58; 1791.800; 1507.600; 7165.100; 1.29900
1653.35; 1837.700; 1554.000; 7043.000; 1.28663
1657.13; 1754.900; 1486.500; 6816.300; 1.29793
1660.90; 1763.200; 1500.200; 6658.700; 1.29257
1664.67; 1743.500; 1492.900; 6464.500; 1.29752
1668.43; 1752.000; 1506.200; 6271.300; 1.28749
1672.19; 1761.800; 1522.100; 6011.600; 1.27253
1675.95; 1715.800; 1493.800; 5613.400; 1.26850
1679.70; 1743.700; 1530.900; 5235.900; 1.24082
1683.46; 1688.400; 1497.800; 4742.900; 1.23111
1687.20; 1679.500; 1511.400; 4295.600; 1.21913
1690.95; 1662.700; 1504.400; 3867.300; 1.17396
1694.69; 1653.000; 1514.400; 3526.700; 1.16193
1698.43; 1608.800; 1482.500; 3185.600; 1.12984
1702.16; 1613.400; 1497.600; 2968.200; 1.10379
1705.89; 1610.900; 1499.300; 2779.100; 1.05948
1709.62; 1593.500; 1493.100; 2618.100; 1.04942
1713.35; 1627.100; 1522.600; 2525.400; 0.98210
1717.07; 1582.500; 1492.000; 2393.400; 0.99827
1720.79; 1606.300; 1513.300; 2338.300; 0.94797
1724.50; 1606.300; 1514.000; 2272.300; 0.91464
1728.21; 1584.600; 1499.400; 2201.400; 0.91590
1731.92; 1582.600; 1495.900; 2152.500; 0.87928
1735.63; 1569.000; 1483.800; 2109.800; 0.86613
1739.33; 1608.500; 1525.100; 2113.700; 0.84865
1743.02; 1580.800; 1493.200; 2053.800; 0.80615
1746.72; 1580.000; 1494.300; 2031.700; 0.79732
1750.41; 1580.500; 1502.900; 2014.600; 0.81915
1754.10; 1596.800; 1515.500; 2011.500; 0.78539

