
Integration time [ms]:  10.000
Averaging Nr. [scans]: 10
Smoothing Nr. [pixels]: 0
Data measured with spectrometer [name]: 1911294U1
Wave   ;Sample   ;Dark     ;Reference;Absorbance
[nm]   ;[counts] ;[counts] ;[counts] ;[A.U]

 860.61; 1612.500; 1551.700; 1907.800; 0.76767
 864.82; 1569.000; 1505.600; 1955.500; 0.85103
 869.02; 1582.200; 1514.900; 2034.000; 0.88724
 873.23; 1601.100; 1530.300; 2122.800; 0.92266
 877.43; 1560.900; 1494.800; 2149.500; 0.99584
 881.63; 1606.900; 1530.800; 2256.000; 0.97907
 885.83; 1581.500; 1499.600; 2300.600; 0.99035
 890.03; 1580.000; 1501.000; 2363.200; 1.03798
 894.23; 1587.300; 1498.400; 2434.200; 1.02228
 898.42; 1570.500; 1490.200; 2489.500; 1.09498
 902.62; 1614.600; 1522.400; 2605.100; 1.06978
 906.81; 1575.700; 1488.700; 2644.500; 1.12336
 911.00; 1587.300; 1494.400; 2732.000; 1.12456
 915.19; 1600.500; 1503.000; 2840.700; 1.13735
 919.38; 1648.500; 1541.400; 2988.000; 1.13056
 923.57; 1585.700; 1477.600; 3060.100; 1.16552
 927.76; 1626.300; 1511.200; 3297.300; 1.19083
 931.94; 1615.400; 1493.300; 3511.600; 1.21827
 936.13; 1651.000; 1516.000; 3764.700; 1.22160
 940.31; 1625.300; 1484.900; 3931.100; 1.24112
 944.49; 1694.200; 1547.000; 4163.000; 1.24973
 948.67; 1677.500; 1518.900; 4297.000; 1.24344
 952.85; 1651.100; 1493.400; 4427.000; 1.26957
 957.03; 1664.700; 1501.100; 4604.000; 1.27798
 961.21; 1693.400; 1518.200; 4778.500; 1.26972
 965.38; 1685.400; 1507.600; 4921.400; 1.28331
 969.55; 1684.700; 1505.800; 5072.200; 1.29962
 973.73; 1711.100; 1520.500; 5253.800; 1.29197
 977.90; 1709.600; 1511.100; 5413.200; 1.29354
 982.06; 1720.700; 1518.800; 5592.700; 1.30487
 986.23; 1715.600; 1506.000; 5748.000; 1.30618
 990.40; 1736.000; 1519.400; 5941.100; 1.30993
 994.56; 1761.600; 1538.400; 6129.700; 1.31324
 998.72; 1769.200; 1541.900; 6290.500; 1.31997
1002.88; 1742.800; 1510.200; 6415.300; 1.32404
1007.04; 1762.900; 1529.400; 6579.000; 1.33497
1011.20; 1766.200; 1519.900; 6717.500; 1.32434
1015.36; 1788.800; 1543.200; 6867.300; 1.33602
1019.51; 1761.800; 1510.000; 6947.400; 1.33434
1023.67; 1785.100; 1530.900; 7080.200; 1.33906
1027.82; 1774.500; 1512.800; 7172.800; 1.33501
1031.97; 1792.200; 1525.500; 7291.600; 1.33486
1036.12; 1787.800; 1523.900; 7384.200; 1.34648
1040.27; 1789.500; 1520.100; 7490.500; 1.34561
1044.41; 1799.400; 1522.700; 7585.300; 1.34065
1048.56; 1813.300; 1534.900; 7704.000; 1.34555
1052.70; 1803.300; 1519.500; 7789.500; 1.34426
1056.84; 1815.700; 1529.400; 7905.400; 1.34773
1060.98; 1791.000; 1501.100; 7985.000; 1.34959
1065.11; 1812.300; 1513.900; 8119.500; 1.34511
1069.25; 1828.200; 1526.700; 8264.000; 1.34920
1073.38; 1835.200; 1527.800; 8408.100; 1.34990
1077.52; 1856.900; 1546.500; 8548.800; 1.35332
1081.65; 1848.200; 1532.900; 8683.900; 1.35564
1085.77; 1848.500; 1527.000; 8829.600; 1.35630
1089.90; 1862.600; 1533.700; 8986.900; 1.35528
1094.03; 1832.600; 1500.400; 9113.600; 1.36017
1098.15; 1882.700; 1546.400; 9322.700; 1.36405
1102.27; 1832.000; 1489.800; 9441.600; 1.36619
1106.39; 1876.400; 1527.600; 9661.400; 1.36772
1110.51; 1911.300; 1551.400; 9878.200; 1.36430
1114.63; 1870.300; 1500.800;10067.700; 1.36521
1118.74; 1933.100; 1553.000;10360.700; 1.36496
1122.85; 1911.800; 1530.700;10522.800; 1.37282
1126.96; 1892.700; 1503.600;10642.400; 1.37083
1131.07; 1952.000; 1554.700;10786.500; 1.36617
1135.18; 1900.200; 1504.600;10802.100; 1.37111
1139.29; 1915.500; 1516.000;10868.600; 1.36942
1143.39; 1940.200; 1538.200;10912.400; 1.36771
1147.49; 1914.700; 1518.500;10897.900; 1.37426
1151.59; 1916.500; 1515.000;10914.000; 1.36940
1155.69; 1945.800; 1541.600;10966.800; 1.36769
1159.78; 1900.300; 1502.700;10951.200; 1.37592
1163.88; 1944.000; 1536.300;11019.900; 1.36663
1167.97; 1941.400; 1537.000;11049.100; 1.37147
1172.06; 1917.000; 1514.600;11052.300; 1.37479
1176.15; 1916.100; 1511.400;11073.900; 1.37344
1180.23; 1961.900; 1549.600;11155.900; 1.36734
1184.32; 1907.400; 1494.700;11140.100; 1.36869
1188.40; 1923.200; 1514.000;11201.700; 1.37429
1192.48; 1929.000; 1515.300;11260.500; 1.37211
1196.56; 1935.000; 1521.200;11309.800; 1.37393
1200.64; 1959.800; 1534.600;11380.300; 1.36465
1204.71; 1936.500; 1514.200;11415.100; 1.37005
1208.78; 1945.100; 1522.400;11476.100; 1.37195
1212.85; 1972.900; 1547.900;11559.600; 1.37212
1216.92; 1898.200; 1476.200;11533.500; 1.37717
1220.99; 1966.700; 1534.300;11668.800; 1.36992
1225.05; 1959.000; 1527.500;11719.100; 1.37326
1229.11; 1941.000; 1506.200;11777.200; 1.37332
1233.17; 1976.000; 1537.300;11867.500; 1.37194
1237.23; 1978.300; 1535.100;11935.000; 1.37043
1241.29; 1971.000; 1531.200;11992.800; 1.37634
1245.34; 2007.200; 1560.000;12107.000; 1.37263
1249.39; 1945.600; 1500.000;12117.900; 1.37709
1253.44; 1968.100; 1518.900;12212.500; 1.37668
1257.49; 2003.800; 1552.800;12334.500; 1.37851
1261.53; 1972.100; 1518.900;12369.900; 1.37918
1265.58; 1984.700; 1525.900;12452.600; 1.37687
1269.62; 1980.500; 1519.600;12529.800; 1.37819
1273.65; 1986.000; 1519.900;12603.400; 1.37620
1277.69; 1981.500; 1518.000;12681.800; 1.38176
1281.72; 2000.300; 1530.100;12773.400; 1.37861
1285.76; 2006.000; 1529.900;12851.500; 1.37621
1289.79; 1999.600; 1520.800;12909.400; 1.37632
1293.81; 1984.700; 1511.100;12974.600; 1.38391
1297.84; 1966.100; 1490.200;13004.900; 1.38374
1301.86; 2033.300; 1546.100;13137.300; 1.37642
1305.88; 2005.100; 1520.800;13163.800; 1.38095
1309.90; 2028.000; 1541.300;13243.300; 1.38100
1313.92; 1986.500; 1497.800;13236.900; 1.38059
1317.93; 2020.200; 1527.400;13321.700; 1.37900
1321.94; 2009.100; 1516.400;13349.300; 1.38051
1325.95; 2009.700; 1515.800;13392.300; 1.38105
1329.96; 2027.800; 1527.200;13449.200; 1.37686
1333.96; 2028.800; 1523.500;13501.700; 1.37484
1337.96; 2028.100; 1525.700;13575.100; 1.37992
1341.96; 2038.100; 1530.100;13604.900; 1.37602
1345.96; 2020.400; 1514.800;13535.100; 1.37611
1349.95; 2001.100; 1504.900;13357.000; 1.37814
1353.95; 1983.000; 1500.800;13080.300; 1.38046
1357.94; 1988.900; 1519.000;12810.900; 1.38076
1361.92; 1978.700; 1525.200;12577.700; 1.38688
1365.91; 1958.400; 1509.100;12495.800; 1.38833
1369.89; 1953.800; 1500.900;12522.200; 1.38623
1373.87; 1939.400; 1483.400;12502.700; 1.38319
1377.85; 1985.900; 1541.800;12256.400; 1.38250
1381.82; 1921.200; 1495.800;11839.800; 1.38589
1385.80; 1976.700; 1542.900;11856.600; 1.37612
1389.77; 1958.300; 1524.900;11869.500; 1.37782
1393.74; 1938.000; 1509.900;11804.200; 1.38105
1397.70; 1985.100; 1552.300;11918.000; 1.37931
1401.66; 1957.800; 1522.100;11986.800; 1.38054
1405.62; 1942.100; 1502.000;12055.500; 1.37985
1409.58; 1978.300; 1528.700;12203.600; 1.37554
1413.54; 1973.200; 1519.400;12293.200; 1.37550
1417.49; 1929.800; 1476.800;12292.900; 1.37797
1421.44; 1985.100; 1523.100;12384.600; 1.37125
1425.39; 1969.400; 1510.500;12382.800; 1.37460
1429.33; 1987.300; 1525.700;12395.900; 1.37197
1433.27; 1978.200; 1523.700;12370.200; 1.37776
1437.21; 1960.000; 1502.800;12323.500; 1.37415
1441.15; 2005.300; 1543.700;12339.600; 1.36899
1445.09; 1986.700; 1531.000;12292.800; 1.37321
1449.02; 1943.800; 1489.700;12200.500; 1.37267
1452.95; 1988.800; 1529.700;12230.100; 1.36749
1456.87; 1983.300; 1524.100;12175.900; 1.36542
1460.80; 1969.300; 1510.600;12112.200; 1.36384
1464.72; 1948.500; 1502.500;12023.800; 1.37273
1468.64; 1948.400; 1502.300;11961.600; 1.37007
1472.55; 1963.500; 1518.100;11913.700; 1.36810
1476.47; 1970.800; 1531.300;11884.300; 1.37211
1480.38; 1968.200; 1517.300;11801.000; 1.35807
1484.28; 1972.200; 1535.000;11762.600; 1.36909
1488.19; 1958.700; 1522.200;11690.100; 1.36725
1492.09; 1920.300; 1489.900;11596.700; 1.37074
1495.99; 1938.800; 1506.600;11539.600; 1.36575
1499.89; 1944.800; 1513.300;11504.200; 1.36462
1503.78; 1948.300; 1515.200;11427.600; 1.35959
1507.67; 1966.800; 1539.800;11381.400; 1.36264
1511.56; 1921.000; 1498.300;11268.800; 1.36388
1515.44; 1947.900; 1525.700;11237.600; 1.36179
1519.33; 1934.700; 1515.200;11135.600; 1.36046
1523.21; 1938.600; 1523.900;11078.700; 1.36249
1527.08; 1928.000; 1519.400;10990.300; 1.36509
1530.96; 1913.500; 1500.300;10886.000; 1.35631
1534.83; 1956.000; 1544.300;10845.200; 1.35394
1538.70; 1911.100; 1508.600;10715.900; 1.35937
1542.56; 1895.800; 1500.900;10619.900; 1.36346
1546.42; 1910.100; 1517.300;10554.500; 1.36186
1550.28; 1903.500; 1513.400;10453.100; 1.36015
1554.14; 1898.500; 1508.800;10345.500; 1.35556
1557.99; 1909.000; 1525.700;10266.900; 1.35803
1561.84; 1877.500; 1498.400;10122.900; 1.35698
1565.69; 1887.200; 1516.200;10052.800; 1.36191
1569.54; 1872.100; 1503.300; 9933.900; 1.35907
1573.38; 1866.900; 1501.700; 9824.400; 1.35773
1577.22; 1892.500; 1527.000; 9752.100; 1.35225
1581.05; 1870.400; 1512.400; 9625.200; 1.35529
1584.89; 1876.700; 1524.900; 9522.100; 1.35664
1588.72; 1871.400; 1517.700; 9409.100; 1.34852
1592.54; 1848.400; 1506.200; 9274.600; 1.35605
1596.37; 1863.800; 1517.200; 9177.600; 1.34442
1600.19; 1849.000; 1510.100; 9050.400; 1.34732
1604.01; 1816.700; 1486.400; 8899.400; 1.35109
1607.82; 1836.800; 1509.800; 8796.900; 1.34801
1611.63; 1799.900; 1480.100; 8624.900; 1.34911
1615.44; 1877.600; 1553.300; 8575.400; 1.33552
1619.25; 1794.800; 1486.200; 8361.300; 1.34788
1623.05; 1785.700; 1479.000; 8208.600; 1.34128
1626.85; 1815.300; 1513.000; 8103.300; 1.33847
1630.64; 1818.500; 1524.000; 7969.700; 1.34018
1634.44; 1797.000; 1504.600; 7800.200; 1.33306
1638.23; 1787.300; 1503.300; 7652.600; 1.33551
1642.01; 1782.900; 1506.800; 7500.000; 1.33659
1645.80; 1775.200; 1499.800; 7336.400; 1.32620
1649.58; 1773.700; 1507.600; 7165.100; 1.32758
1653.35; 1810.900; 1554.000; 7043.000; 1.32973
1657.13; 1735.600; 1486.500; 6816.300; 1.33034
1660.90; 1745.500; 1500.200; 6658.700; 1.32283
1664.67; 1724.700; 1492.900; 6464.500; 1.33138
1668.43; 1735.800; 1506.200; 6271.300; 1.31710
1672.19; 1745.900; 1522.100; 6011.600; 1.30234
1675.95; 1697.200; 1493.800; 5613.400; 1.30650
1679.70; 1724.300; 1530.900; 5235.900; 1.28233
1683.46; 1670.200; 1497.800; 4742.900; 1.27469
1687.20; 1670.700; 1511.400; 4295.600; 1.24248
1690.95; 1643.600; 1504.400; 3867.300; 1.22981
1694.69; 1640.300; 1514.400; 3526.700; 1.20367
1698.43; 1591.500; 1482.500; 3185.600; 1.19381
1702.16; 1602.600; 1497.600; 2968.200; 1.14631
1705.89; 1597.000; 1499.300; 2779.100; 1.11725
1709.62; 1581.700; 1493.100; 2618.100; 1.10372
1713.35; 1610.100; 1522.600; 2525.400; 1.05921
1717.07; 1571.700; 1492.000; 2393.400; 1.05346
1720.79; 1595.000; 1513.300; 2338.300; 1.00423
1724.50; 1590.600; 1514.000; 2272.300; 0.99561
1728.21; 1572.400; 1499.400; 2201.400; 0.98301
1731.92; 1564.400; 1495.900; 2152.500; 0.98161
1735.63; 1555.000; 1483.800; 2109.800; 0.94409
1739.33; 1594.000; 1525.100; 2113.700; 0.93160
1743.02; 1563.800; 1493.200; 2053.800; 0.89985
1746.72; 1566.200; 1494.300; 2031.700; 0.87357
1750.41; 1570.800; 1502.900; 2014.600; 0.87715
1754.10; 1579.800; 1515.500; 2011.500; 0.88727

