
Integration time [ms]:  10.000
Averaging Nr. [scans]: 10
Smoothing Nr. [pixels]: 0
Data measured with spectrometer [name]: 1911294U1
Wave   ;Sample   ;Dark     ;Reference;Absorbance
[nm]   ;[counts] ;[counts] ;[counts] ;[A.U]

 860.61; 1627.900; 1551.700; 1907.800; 0.66962
 864.82; 1579.300; 1505.600; 1955.500; 0.78565
 869.02; 1592.300; 1514.900; 2034.000; 0.82651
 873.23; 1614.100; 1530.300; 2122.800; 0.84944
 877.43; 1572.600; 1494.800; 2149.500; 0.92506
 881.63; 1619.900; 1530.800; 2256.000; 0.91058
 885.83; 1599.200; 1499.600; 2300.600; 0.90537
 890.03; 1593.200; 1501.000; 2363.200; 0.97088
 894.23; 1601.600; 1498.400; 2434.200; 0.95750
 898.42; 1586.800; 1490.200; 2489.500; 1.01472
 902.62; 1623.400; 1522.400; 2605.100; 1.03019
 906.81; 1588.800; 1488.700; 2644.500; 1.06245
 911.00; 1601.300; 1494.400; 2732.000; 1.06360
 915.19; 1615.200; 1503.000; 2840.700; 1.07637
 919.38; 1659.100; 1541.400; 2988.000; 1.08957
 923.57; 1595.500; 1477.600; 3060.100; 1.12783
 927.76; 1643.500; 1511.200; 3297.300; 1.13035
 931.94; 1631.600; 1493.300; 3511.600; 1.16416
 936.13; 1663.900; 1516.000; 3764.700; 1.18196
 940.31; 1637.000; 1484.900; 3931.100; 1.20636
 944.49; 1712.000; 1547.000; 4163.000; 1.20015
 948.67; 1691.300; 1518.900; 4297.000; 1.20721
 952.85; 1670.500; 1493.400; 4427.000; 1.21918
 957.03; 1683.100; 1501.100; 4604.000; 1.23170
 961.21; 1705.700; 1518.200; 4778.500; 1.24026
 965.38; 1704.800; 1507.600; 4921.400; 1.23833
 969.55; 1699.300; 1505.800; 5072.200; 1.26555
 973.73; 1730.600; 1520.500; 5253.800; 1.24967
 977.90; 1726.100; 1511.100; 5413.200; 1.25886
 982.06; 1738.200; 1518.800; 5592.700; 1.26877
 986.23; 1736.100; 1506.000; 5748.000; 1.26565
 990.40; 1757.000; 1519.400; 5941.100; 1.26974
 994.56; 1784.000; 1538.400; 6129.700; 1.27171
 998.72; 1786.800; 1541.900; 6290.500; 1.28758
1002.88; 1760.700; 1510.200; 6415.300; 1.29184
1007.04; 1787.600; 1529.400; 6579.000; 1.29130
1011.20; 1788.500; 1519.900; 6717.500; 1.28670
1015.36; 1818.000; 1543.200; 6867.300; 1.28723
1019.51; 1781.500; 1510.000; 6947.400; 1.30162
1023.67; 1805.100; 1530.900; 7080.200; 1.30617
1027.82; 1796.800; 1512.800; 7172.800; 1.29950
1031.97; 1815.300; 1525.500; 7291.600; 1.29878
1036.12; 1810.000; 1523.900; 7384.200; 1.31140
1040.27; 1814.600; 1520.100; 7490.500; 1.30692
1044.41; 1820.700; 1522.700; 7585.300; 1.30844
1048.56; 1839.100; 1534.900; 7704.000; 1.30706
1052.70; 1824.400; 1519.500; 7789.500; 1.31311
1056.84; 1841.700; 1529.400; 7905.400; 1.30998
1060.98; 1811.400; 1501.100; 7985.000; 1.32005
1065.11; 1835.900; 1513.900; 8119.500; 1.31206
1069.25; 1853.500; 1526.700; 8264.000; 1.31420
1073.38; 1862.500; 1527.800; 8408.100; 1.31295
1077.52; 1883.700; 1546.500; 8548.800; 1.31735
1081.65; 1870.300; 1532.900; 8683.900; 1.32622
1085.77; 1875.800; 1527.000; 8829.600; 1.32090
1089.90; 1887.700; 1533.700; 8986.900; 1.32334
1094.03; 1859.300; 1500.400; 9113.600; 1.32659
1098.15; 1907.800; 1546.400; 9322.700; 1.33278
1102.27; 1861.700; 1489.800; 9441.600; 1.33004
1106.39; 1902.900; 1527.600; 9661.400; 1.33591
1110.51; 1942.700; 1551.400; 9878.200; 1.32797
1114.63; 1897.600; 1500.800;10067.700; 1.33425
1118.74; 1961.600; 1553.000;10360.700; 1.33356
1122.85; 1939.000; 1530.700;10522.800; 1.34288
1126.96; 1924.500; 1503.600;10642.400; 1.33671
1131.07; 1982.600; 1554.700;10786.500; 1.33394
1135.18; 1926.000; 1504.600;10802.100; 1.34367
1139.29; 1943.700; 1516.000;10868.600; 1.33979
1143.39; 1969.000; 1538.200;10912.400; 1.33766
1147.49; 1948.000; 1518.500;10897.900; 1.33921
1151.59; 1944.700; 1515.000;10914.000; 1.33992
1155.69; 1975.500; 1541.600;10966.800; 1.33690
1159.78; 1930.400; 1502.700;10951.200; 1.34422
1163.88; 1977.900; 1536.300;11019.900; 1.33194
1167.97; 1975.600; 1537.000;11049.100; 1.33621
1172.06; 1950.800; 1514.600;11052.300; 1.33976
1176.15; 1943.900; 1511.400;11073.900; 1.34459
1180.23; 1995.000; 1549.600;11155.900; 1.33381
1184.32; 1937.600; 1494.700;11140.100; 1.33801
1188.40; 1956.000; 1514.000;11201.700; 1.34080
1192.48; 1961.200; 1515.300;11260.500; 1.33955
1196.56; 1971.000; 1521.200;11309.800; 1.33770
1200.64; 1990.700; 1534.600;11380.300; 1.33419
1204.71; 1965.700; 1514.200;11415.100; 1.34102
1208.78; 1979.900; 1522.400;11476.100; 1.33759
1212.85; 2004.300; 1547.900;11559.600; 1.34116
1216.92; 1927.100; 1476.200;11533.500; 1.34840
1220.99; 1994.000; 1534.300;11668.800; 1.34333
1225.05; 1993.400; 1527.500;11719.100; 1.33995
1229.11; 1973.800; 1506.200;11777.200; 1.34174
1233.17; 2006.400; 1537.300;11867.500; 1.34284
1237.23; 2003.000; 1535.100;11935.000; 1.34688
1241.29; 2006.000; 1531.200;11992.800; 1.34309
1245.34; 2038.300; 1560.000;12107.000; 1.34343
1249.39; 1978.600; 1500.000;12117.900; 1.34607
1253.44; 1999.000; 1518.900;12212.500; 1.34779
1257.49; 2042.900; 1552.800;12334.500; 1.34240
1261.53; 2009.400; 1518.900;12369.900; 1.34483
1265.58; 2018.800; 1525.900;12452.600; 1.34573
1269.62; 2013.800; 1519.600;12529.800; 1.34789
1273.65; 2018.400; 1519.900;12603.400; 1.34701
1277.69; 2011.900; 1518.000;12681.800; 1.35417
1281.72; 2036.200; 1530.100;12773.400; 1.34666
1285.76; 2039.400; 1529.900;12851.500; 1.34676
1289.79; 2033.500; 1520.800;12909.400; 1.34661
1293.81; 2023.900; 1511.100;12974.600; 1.34937
1297.84; 2002.700; 1490.200;13004.900; 1.35156
1301.86; 2066.400; 1546.100;13137.300; 1.34787
1305.88; 2036.800; 1520.800;13163.800; 1.35342
1309.90; 2065.500; 1541.300;13243.300; 1.34876
1313.92; 2015.900; 1497.800;13236.900; 1.35522
1317.93; 2054.700; 1527.400;13321.700; 1.34961
1321.94; 2045.600; 1516.400;13349.300; 1.34947
1325.95; 2047.000; 1515.800;13392.300; 1.34943
1329.96; 2066.200; 1527.200;13449.200; 1.34476
1333.96; 2060.500; 1523.500;13501.700; 1.34842
1337.96; 2059.400; 1525.700;13575.100; 1.35367
1341.96; 2079.000; 1530.100;13604.900; 1.34239
1345.96; 2047.600; 1514.800;13535.100; 1.35335
1349.95; 2029.600; 1504.900;13357.000; 1.35388
1353.95; 2013.400; 1500.800;13080.300; 1.35391
1357.94; 2014.900; 1519.000;12810.900; 1.35737
1361.92; 2015.400; 1525.200;12577.700; 1.35309
1365.91; 1989.500; 1509.100;12495.800; 1.35926
1369.89; 1984.000; 1500.900;12522.200; 1.35820
1373.87; 1974.200; 1483.400;12502.700; 1.35125
1377.85; 2022.600; 1541.800;12256.400; 1.34801
1381.82; 1951.500; 1495.800;11839.800; 1.35601
1385.80; 2004.500; 1542.900;11856.600; 1.34915
1389.77; 1990.100; 1524.900;11869.500; 1.34707
1393.74; 1968.700; 1509.900;11804.200; 1.35097
1397.70; 2014.600; 1552.300;11918.000; 1.35067
1401.66; 1986.300; 1522.100;11986.800; 1.35302
1405.62; 1970.700; 1502.000;12055.500; 1.35250
1409.58; 2007.700; 1528.700;12203.600; 1.34803
1413.54; 2002.900; 1519.400;12293.200; 1.34797
1417.49; 1959.100; 1476.800;12292.900; 1.35075
1421.44; 2011.900; 1523.100;12384.600; 1.34676
1425.39; 1995.400; 1510.500;12382.800; 1.35067
1429.33; 2015.000; 1525.700;12395.900; 1.34666
1433.27; 2008.500; 1523.700;12370.200; 1.34973
1437.21; 1985.200; 1502.800;12323.500; 1.35085
1441.15; 2031.600; 1543.700;12339.600; 1.34493
1445.09; 2014.300; 1531.000;12292.800; 1.34767
1449.02; 1968.400; 1489.700;12200.500; 1.34976
1452.95; 2014.300; 1529.700;12230.100; 1.34402
1456.87; 2008.500; 1524.100;12175.900; 1.34222
1460.80; 1992.600; 1510.600;12112.200; 1.34232
1464.72; 1978.700; 1502.500;12023.800; 1.34428
1468.64; 1977.100; 1502.300;11961.600; 1.34299
1472.55; 1988.900; 1518.100;11913.700; 1.34401
1476.47; 2001.900; 1531.300;11884.300; 1.34241
1480.38; 1991.400; 1517.300;11801.000; 1.33628
1484.28; 2001.300; 1535.000;11762.600; 1.34111
1488.19; 1987.400; 1522.200;11690.100; 1.33959
1492.09; 1948.200; 1489.900;11596.700; 1.34346
1495.99; 1969.700; 1506.600;11539.600; 1.33576
1499.89; 1970.200; 1513.300;11504.200; 1.33978
1503.78; 1969.600; 1515.200;11427.600; 1.33874
1507.67; 1993.800; 1539.800;11381.400; 1.33601
1511.56; 1946.300; 1498.300;11268.800; 1.33864
1515.44; 1977.500; 1525.700;11237.600; 1.33236
1519.33; 1958.600; 1515.200;11135.600; 1.33640
1523.21; 1968.200; 1523.900;11078.700; 1.33255
1527.08; 1958.600; 1519.400;10990.300; 1.33373
1530.96; 1937.800; 1500.300;10886.000; 1.33149
1534.83; 1981.200; 1544.300;10845.200; 1.32814
1538.70; 1934.700; 1508.600;10715.900; 1.33462
1542.56; 1918.800; 1500.900;10619.900; 1.33887
1546.42; 1935.200; 1517.300;10554.500; 1.33496
1550.28; 1931.600; 1513.400;10453.100; 1.32994
1554.14; 1925.800; 1508.800;10345.500; 1.32615
1557.99; 1935.900; 1525.700;10266.900; 1.32858
1561.84; 1900.000; 1498.400;10122.900; 1.33194
1565.69; 1916.500; 1516.200;10052.800; 1.32890
1569.54; 1899.600; 1503.300; 9933.900; 1.32783
1573.38; 1892.700; 1501.700; 9824.400; 1.32809
1577.22; 1919.600; 1527.000; 9752.100; 1.32119
1581.05; 1898.200; 1512.400; 9625.200; 1.32281
1584.89; 1907.600; 1524.900; 9522.100; 1.32008
1588.72; 1896.800; 1517.700; 9409.100; 1.31840
1592.54; 1875.300; 1506.200; 9274.600; 1.32319
1596.37; 1891.700; 1517.200; 9177.600; 1.31080
1600.19; 1876.100; 1510.100; 9050.400; 1.31391
1604.01; 1842.000; 1486.400; 8899.400; 1.31903
1607.82; 1855.300; 1509.800; 8796.900; 1.32411
1611.63; 1826.300; 1480.100; 8624.900; 1.31466
1615.44; 1895.600; 1553.300; 8575.400; 1.31206
1619.25; 1817.800; 1486.200; 8361.300; 1.31666
1623.05; 1808.900; 1479.000; 8208.600; 1.30961
1626.85; 1835.200; 1513.000; 8103.300; 1.31078
1630.64; 1845.400; 1524.000; 7969.700; 1.30222
1634.44; 1819.100; 1504.600; 7800.200; 1.30142
1638.23; 1818.400; 1503.300; 7652.600; 1.29038
1642.01; 1805.700; 1506.800; 7500.000; 1.30213
1645.80; 1796.800; 1499.800; 7336.400; 1.29340
1649.58; 1794.100; 1507.600; 7165.100; 1.29550
1653.35; 1835.300; 1554.000; 7043.000; 1.29032
1657.13; 1756.300; 1486.500; 6816.300; 1.29567
1660.90; 1766.900; 1500.200; 6658.700; 1.28650
1664.67; 1747.800; 1492.900; 6464.500; 1.29013
1668.43; 1755.500; 1506.200; 6271.300; 1.28135
1672.19; 1764.000; 1522.100; 6011.600; 1.26856
1675.95; 1721.700; 1493.800; 5613.400; 1.25711
1679.70; 1742.900; 1530.900; 5235.900; 1.24245
1683.46; 1689.100; 1497.800; 4742.900; 1.22951
1687.20; 1683.300; 1511.400; 4295.600; 1.20942
1690.95; 1657.200; 1504.400; 3867.300; 1.18932
1694.69; 1658.800; 1514.400; 3526.700; 1.14413
1698.43; 1605.600; 1482.500; 3185.600; 1.14098
1702.16; 1616.900; 1497.600; 2968.200; 1.09085
1705.89; 1616.200; 1499.300; 2779.100; 1.03933
1709.62; 1595.600; 1493.100; 2618.100; 1.04043
1713.35; 1629.200; 1522.600; 2525.400; 0.97346
1717.07; 1584.400; 1492.000; 2393.400; 0.98925
1720.79; 1608.200; 1513.300; 2338.300; 0.93919
1724.50; 1606.900; 1514.000; 2272.300; 0.91183
1728.21; 1587.700; 1499.400; 2201.400; 0.90038
1731.92; 1582.500; 1495.900; 2152.500; 0.87978
1735.63; 1565.000; 1483.800; 2109.800; 0.88702
1739.33; 1606.500; 1525.100; 2113.700; 0.85920
1743.02; 1580.200; 1493.200; 2053.800; 0.80913
1746.72; 1576.500; 1494.300; 2031.700; 0.81543
1750.41; 1586.000; 1502.900; 2014.600; 0.78941
1754.10; 1594.900; 1515.500; 2011.500; 0.79566

