
Integration time [ms]:  10.000
Averaging Nr. [scans]: 10
Smoothing Nr. [pixels]: 0
Data measured with spectrometer [name]: 1911294U1
Wave   ;Sample   ;Dark     ;Reference;Absorbance
[nm]   ;[counts] ;[counts] ;[counts] ;[A.U]

 860.61; 1614.400; 1551.700; 1907.800; 0.75430
 864.82; 1568.000; 1505.600; 1955.500; 0.85793
 869.02; 1580.600; 1514.900; 2034.000; 0.89769
 873.23; 1605.700; 1530.300; 2122.800; 0.89532
 877.43; 1559.800; 1494.800; 2149.500; 1.00313
 881.63; 1607.700; 1530.800; 2256.000; 0.97453
 885.83; 1580.900; 1499.600; 2300.600; 0.99354
 890.03; 1585.500; 1501.000; 2363.200; 1.00875
 894.23; 1585.600; 1498.400; 2434.200; 1.03067
 898.42; 1570.400; 1490.200; 2489.500; 1.09552
 902.62; 1612.500; 1522.400; 2605.100; 1.07978
 906.81; 1579.800; 1488.700; 2644.500; 1.10336
 911.00; 1588.000; 1494.400; 2732.000; 1.12130
 915.19; 1600.100; 1503.000; 2840.700; 1.13914
 919.38; 1643.600; 1541.400; 2988.000; 1.15090
 923.57; 1585.100; 1477.600; 3060.100; 1.16794
 927.76; 1626.800; 1511.200; 3297.300; 1.18895
 931.94; 1618.100; 1493.300; 3511.600; 1.20877
 936.13; 1652.500; 1516.000; 3764.700; 1.21680
 940.31; 1624.100; 1484.900; 3931.100; 1.24485
 944.49; 1698.700; 1547.000; 4163.000; 1.23665
 948.67; 1682.600; 1518.900; 4297.000; 1.22970
 952.85; 1653.300; 1493.400; 4427.000; 1.26355
 957.03; 1667.800; 1501.100; 4604.000; 1.26983
 961.21; 1697.300; 1518.200; 4778.500; 1.26016
 965.38; 1689.300; 1507.600; 4921.400; 1.27388
 969.55; 1685.400; 1505.800; 5072.200; 1.29792
 973.73; 1714.100; 1520.500; 5253.800; 1.28519
 977.90; 1705.400; 1511.100; 5413.200; 1.30283
 982.06; 1717.300; 1518.800; 5592.700; 1.31225
 986.23; 1717.500; 1506.000; 5748.000; 1.30226
 990.40; 1736.500; 1519.400; 5941.100; 1.30893
 994.56; 1762.600; 1538.400; 6129.700; 1.31130
 998.72; 1770.000; 1541.900; 6290.500; 1.31844
1002.88; 1740.200; 1510.200; 6415.300; 1.32892
1007.04; 1768.200; 1529.400; 6579.000; 1.32522
1011.20; 1768.000; 1519.900; 6717.500; 1.32118
1015.36; 1794.100; 1543.200; 6867.300; 1.32675
1019.51; 1763.300; 1510.000; 6947.400; 1.33176
1023.67; 1788.100; 1530.900; 7080.200; 1.33397
1027.82; 1779.000; 1512.800; 7172.800; 1.32761
1031.97; 1796.900; 1525.500; 7291.600; 1.32727
1036.12; 1793.200; 1523.900; 7384.200; 1.33768
1040.27; 1790.300; 1520.100; 7490.500; 1.34432
1044.41; 1804.000; 1522.700; 7585.300; 1.33349
1048.56; 1813.900; 1534.900; 7704.000; 1.34462
1052.70; 1801.900; 1519.500; 7789.500; 1.34640
1056.84; 1814.600; 1529.400; 7905.400; 1.34940
1060.98; 1789.000; 1501.100; 7985.000; 1.35259
1065.11; 1812.000; 1513.900; 8119.500; 1.34555
1069.25; 1828.300; 1526.700; 8264.000; 1.34905
1073.38; 1841.100; 1527.800; 8408.100; 1.34165
1077.52; 1861.800; 1546.500; 8548.800; 1.34652
1081.65; 1848.700; 1532.900; 8683.900; 1.35495
1085.77; 1857.500; 1527.000; 8829.600; 1.34431
1089.90; 1865.100; 1533.700; 8986.900; 1.35199
1094.03; 1838.900; 1500.400; 9113.600; 1.35201
1098.15; 1890.000; 1546.400; 9322.700; 1.35472
1102.27; 1835.200; 1489.800; 9441.600; 1.36214
1106.39; 1880.700; 1527.600; 9661.400; 1.36240
1110.51; 1917.500; 1551.400; 9878.200; 1.35688
1114.63; 1878.500; 1500.800;10067.700; 1.35568
1118.74; 1939.300; 1553.000;10360.700; 1.35794
1122.85; 1912.200; 1530.700;10522.800; 1.37237
1126.96; 1897.500; 1503.600;10642.400; 1.36550
1131.07; 1956.900; 1554.700;10786.500; 1.36084
1135.18; 1903.700; 1504.600;10802.100; 1.36728
1139.29; 1918.700; 1516.000;10868.600; 1.36595
1143.39; 1947.400; 1538.200;10912.400; 1.36000
1147.49; 1916.800; 1518.500;10897.900; 1.37196
1151.59; 1917.900; 1515.000;10914.000; 1.36788
1155.69; 1955.100; 1541.600;10966.800; 1.35782
1159.78; 1909.700; 1502.700;10951.200; 1.36577
1163.88; 1950.900; 1536.300;11019.900; 1.35934
1167.97; 1950.200; 1537.000;11049.100; 1.36212
1172.06; 1924.200; 1514.600;11052.300; 1.36708
1176.15; 1921.800; 1511.400;11073.900; 1.36736
1180.23; 1969.300; 1549.600;11155.900; 1.35962
1184.32; 1915.000; 1494.700;11140.100; 1.36076
1188.40; 1931.500; 1514.000;11201.700; 1.36556
1192.48; 1933.500; 1515.300;11260.500; 1.36741
1196.56; 1940.800; 1521.200;11309.800; 1.36789
1200.64; 1963.700; 1534.600;11380.300; 1.36069
1204.71; 1945.100; 1514.200;11415.100; 1.36130
1208.78; 1954.400; 1522.400;11476.100; 1.36250
1212.85; 1979.300; 1547.900;11559.600; 1.36563
1216.92; 1906.800; 1476.200;11533.500; 1.36841
1220.99; 1967.800; 1534.300;11668.800; 1.36881
1225.05; 1962.900; 1527.500;11719.100; 1.36935
1229.11; 1945.800; 1506.200;11777.200; 1.36856
1233.17; 1980.500; 1537.300;11867.500; 1.36751
1237.23; 1980.500; 1535.100;11935.000; 1.36828
1241.29; 1978.600; 1531.200;11992.800; 1.36890
1245.34; 2013.300; 1560.000;12107.000; 1.36674
1249.39; 1954.300; 1500.000;12117.900; 1.36870
1253.44; 1973.400; 1518.900;12212.500; 1.37159
1257.49; 2016.500; 1552.800;12334.500; 1.36645
1261.53; 1981.100; 1518.900;12369.900; 1.37064
1265.58; 1987.700; 1525.900;12452.600; 1.37404
1269.62; 1987.300; 1519.600;12529.800; 1.37183
1273.65; 1997.000; 1519.900;12603.400; 1.36607
1277.69; 1989.100; 1518.000;12681.800; 1.37470
1281.72; 2009.000; 1530.100;12773.400; 1.37065
1285.76; 2012.200; 1529.900;12851.500; 1.37059
1289.79; 2002.800; 1520.800;12909.400; 1.37342
1293.81; 1995.200; 1511.100;12974.600; 1.37438
1297.84; 1974.400; 1490.200;13004.900; 1.37623
1301.86; 2037.800; 1546.100;13137.300; 1.37243
1305.88; 2009.100; 1520.800;13163.800; 1.37738
1309.90; 2037.400; 1541.300;13243.300; 1.37269
1313.92; 1993.800; 1497.800;13236.900; 1.37415
1317.93; 2025.400; 1527.400;13321.700; 1.37444
1321.94; 2016.900; 1516.400;13349.300; 1.37369
1325.95; 2021.800; 1515.800;13392.300; 1.37054
1329.96; 2036.400; 1527.200;13449.200; 1.36946
1333.96; 2034.600; 1523.500;13501.700; 1.36989
1337.96; 2035.800; 1525.700;13575.100; 1.37331
1341.96; 2047.600; 1530.100;13604.900; 1.36797
1345.96; 2021.000; 1514.800;13535.100; 1.37559
1349.95; 2003.400; 1504.900;13357.000; 1.37613
1353.95; 1985.100; 1500.800;13080.300; 1.37858
1357.94; 1994.600; 1519.000;12810.900; 1.37553
1361.92; 1986.500; 1525.200;12577.700; 1.37948
1365.91; 1967.000; 1509.100;12495.800; 1.38010
1369.89; 1959.700; 1500.900;12522.200; 1.38061
1373.87; 1944.200; 1483.400;12502.700; 1.37864
1377.85; 1996.100; 1541.800;12256.400; 1.37263
1381.82; 1928.800; 1495.800;11839.800; 1.37820
1385.80; 1978.200; 1542.900;11856.600; 1.37463
1389.77; 1964.200; 1524.900;11869.500; 1.37195
1393.74; 1942.300; 1509.900;11804.200; 1.37671
1397.70; 1989.400; 1552.300;11918.000; 1.37502
1401.66; 1970.000; 1522.100;11986.800; 1.36855
1405.62; 1946.500; 1502.000;12055.500; 1.37552
1409.58; 1978.500; 1528.700;12203.600; 1.37534
1413.54; 1976.800; 1519.400;12293.200; 1.37207
1417.49; 1938.600; 1476.800;12292.900; 1.36962
1421.44; 1989.100; 1523.100;12384.600; 1.36750
1425.39; 1975.800; 1510.500;12382.800; 1.36859
1429.33; 1991.400; 1525.700;12395.900; 1.36813
1433.27; 1986.400; 1523.700;12370.200; 1.36999
1437.21; 1961.600; 1502.800;12323.500; 1.37263
1441.15; 2008.700; 1543.700;12339.600; 1.36581
1445.09; 1988.400; 1531.000;12292.800; 1.37159
1449.02; 1944.300; 1489.700;12200.500; 1.37219
1452.95; 1991.300; 1529.700;12230.100; 1.36513
1456.87; 1984.300; 1524.100;12175.900; 1.36448
1460.80; 1972.700; 1510.600;12112.200; 1.36064
1464.72; 1949.500; 1502.500;12023.800; 1.37176
1468.64; 1951.500; 1502.300;11961.600; 1.36706
1472.55; 1968.400; 1518.100;11913.700; 1.36335
1476.47; 1977.300; 1531.300;11884.300; 1.36573
1480.38; 1968.700; 1517.300;11801.000; 1.35759
1484.28; 1979.200; 1535.000;11762.600; 1.36220
1488.19; 1960.400; 1522.200;11690.100; 1.36556
1492.09; 1926.600; 1489.900;11596.700; 1.36443
1495.99; 1942.100; 1506.600;11539.600; 1.36244
1499.89; 1947.400; 1513.300;11504.200; 1.36201
1503.78; 1944.900; 1515.200;11427.600; 1.36301
1507.67; 1971.400; 1539.800;11381.400; 1.35798
1511.56; 1922.000; 1498.300;11268.800; 1.36286
1515.44; 1954.000; 1525.700;11237.600; 1.35556
1519.33; 1934.700; 1515.200;11135.600; 1.36046
1523.21; 1943.200; 1523.900;11078.700; 1.35770
1527.08; 1934.500; 1519.400;10990.300; 1.35824
1530.96; 1911.200; 1500.300;10886.000; 1.35873
1534.83; 1954.900; 1544.300;10845.200; 1.35511
1538.70; 1908.800; 1508.600;10715.900; 1.36186
1542.56; 1901.300; 1500.900;10619.900; 1.35745
1546.42; 1914.400; 1517.300;10554.500; 1.35713
1550.28; 1907.400; 1513.400;10453.100; 1.35583
1554.14; 1905.600; 1508.800;10345.500; 1.34772
1557.99; 1910.900; 1525.700;10266.900; 1.35588
1561.84; 1877.000; 1498.400;10122.900; 1.35755
1565.69; 1890.600; 1516.200;10052.800; 1.35795
1569.54; 1883.200; 1503.300; 9933.900; 1.34619
1573.38; 1871.500; 1501.700; 9824.400; 1.35230
1577.22; 1895.500; 1527.000; 9752.100; 1.34870
1581.05; 1874.100; 1512.400; 9625.200; 1.35082
1584.89; 1885.200; 1524.900; 9522.100; 1.34627
1588.72; 1876.700; 1517.700; 9409.100; 1.34206
1592.54; 1855.100; 1506.200; 9274.600; 1.34763
1596.37; 1871.600; 1517.200; 9177.600; 1.33476
1600.19; 1856.700; 1510.100; 9050.400; 1.33756
1604.01; 1823.500; 1486.400; 8899.400; 1.34224
1607.82; 1836.400; 1509.800; 8796.900; 1.34854
1611.63; 1807.500; 1480.100; 8624.900; 1.33891
1615.44; 1878.300; 1553.300; 8575.400; 1.33458
1619.25; 1803.700; 1486.200; 8361.300; 1.33554
1623.05; 1788.900; 1479.000; 8208.600; 1.33677
1626.85; 1816.300; 1513.000; 8103.300; 1.33703
1630.64; 1826.900; 1524.000; 7969.700; 1.32797
1634.44; 1801.000; 1504.600; 7800.200; 1.32716
1638.23; 1793.500; 1503.300; 7652.600; 1.32613
1642.01; 1787.500; 1506.800; 7500.000; 1.32942
1645.80; 1776.000; 1499.800; 7336.400; 1.32494
1649.58; 1773.800; 1507.600; 7165.100; 1.32742
1653.35; 1820.900; 1554.000; 7043.000; 1.31314
1657.13; 1744.500; 1486.500; 6816.300; 1.31509
1660.90; 1751.500; 1500.200; 6658.700; 1.31233
1664.67; 1727.500; 1492.900; 6464.500; 1.32617
1668.43; 1736.300; 1506.200; 6271.300; 1.31616
1672.19; 1748.000; 1522.100; 6011.600; 1.29828
1675.95; 1703.200; 1493.800; 5613.400; 1.29388
1679.70; 1726.600; 1530.900; 5235.900; 1.27720
1683.46; 1674.400; 1497.800; 4742.900; 1.26424
1687.20; 1672.400; 1511.400; 4295.600; 1.23787
1690.95; 1646.200; 1504.400; 3867.300; 1.22177
1694.69; 1642.600; 1514.400; 3526.700; 1.19580
1698.43; 1594.600; 1482.500; 3185.600; 1.18163
1702.16; 1603.900; 1497.600; 2968.200; 1.14096
1705.89; 1601.600; 1499.300; 2779.100; 1.09727
1709.62; 1585.400; 1493.100; 2618.100; 1.08595
1713.35; 1616.600; 1522.600; 2525.400; 1.02809
1717.07; 1571.900; 1492.000; 2393.400; 1.05237
1720.79; 1599.200; 1513.300; 2338.300; 0.98246
1724.50; 1596.000; 1514.000; 2272.300; 0.96603
1728.21; 1573.600; 1499.400; 2201.400; 0.97593
1731.92; 1569.100; 1495.900; 2152.500; 0.95279
1735.63; 1558.400; 1483.800; 2109.800; 0.92384
1739.33; 1599.900; 1525.100; 2113.700; 0.89592
1743.02; 1566.900; 1493.200; 2053.800; 0.88119
1746.72; 1567.200; 1494.300; 2031.700; 0.86757
1750.41; 1576.600; 1502.900; 2014.600; 0.84155
1754.10; 1583.700; 1515.500; 2011.500; 0.86170

