
Integration time [ms]:  10.000
Averaging Nr. [scans]: 10
Smoothing Nr. [pixels]: 0
Data measured with spectrometer [name]: 1911294U1
Wave   ;Sample   ;Dark     ;Reference;Absorbance
[nm]   ;[counts] ;[counts] ;[counts] ;[A.U]

 860.61; 1625.900; 1551.700; 1907.800; 0.68117
 864.82; 1580.400; 1505.600; 1955.500; 0.77921
 869.02; 1592.200; 1514.900; 2034.000; 0.82707
 873.23; 1613.900; 1530.300; 2122.800; 0.85048
 877.43; 1573.300; 1494.800; 2149.500; 0.92117
 881.63; 1612.800; 1530.800; 2256.000; 0.94664
 885.83; 1589.800; 1499.600; 2300.600; 0.94843
 890.03; 1593.600; 1501.000; 2363.200; 0.96900
 894.23; 1596.000; 1498.400; 2434.200; 0.98173
 898.42; 1583.400; 1490.200; 2489.500; 1.03028
 902.62; 1623.600; 1522.400; 2605.100; 1.02933
 906.81; 1587.600; 1488.700; 2644.500; 1.06769
 911.00; 1600.300; 1494.400; 2732.000; 1.06768
 915.19; 1611.500; 1503.000; 2840.700; 1.09093
 919.38; 1655.500; 1541.400; 2988.000; 1.10306
 923.57; 1590.600; 1477.600; 3060.100; 1.14627
 927.76; 1637.500; 1511.200; 3297.300; 1.15050
 931.94; 1632.700; 1493.300; 3511.600; 1.16072
 936.13; 1664.300; 1516.000; 3764.700; 1.18079
 940.31; 1636.900; 1484.900; 3931.100; 1.20665
 944.49; 1716.200; 1547.000; 4163.000; 1.18924
 948.67; 1694.300; 1518.900; 4297.000; 1.19972
 952.85; 1667.500; 1493.400; 4427.000; 1.22660
 957.03; 1681.800; 1501.100; 4604.000; 1.23481
 961.21; 1706.700; 1518.200; 4778.500; 1.23795
 965.38; 1699.800; 1507.600; 4921.400; 1.24948
 969.55; 1699.300; 1505.800; 5072.200; 1.26555
 973.73; 1727.600; 1520.500; 5253.800; 1.25591
 977.90; 1724.300; 1511.100; 5413.200; 1.26251
 982.06; 1734.900; 1518.800; 5592.700; 1.27536
 986.23; 1731.600; 1506.000; 5748.000; 1.27423
 990.40; 1751.200; 1519.400; 5941.100; 1.28048
 994.56; 1780.400; 1538.400; 6129.700; 1.27812
 998.72; 1788.400; 1541.900; 6290.500; 1.28475
1002.88; 1763.300; 1510.200; 6415.300; 1.28736
1007.04; 1781.100; 1529.400; 6579.000; 1.30237
1011.20; 1784.100; 1519.900; 6717.500; 1.29387
1015.36; 1812.100; 1543.200; 6867.300; 1.29666
1019.51; 1785.600; 1510.000; 6947.400; 1.29511
1023.67; 1800.200; 1530.900; 7080.200; 1.31400
1027.82; 1789.300; 1512.800; 7172.800; 1.31112
1031.97; 1810.400; 1525.500; 7291.600; 1.30619
1036.12; 1809.500; 1523.900; 7384.200; 1.31216
1040.27; 1810.000; 1520.100; 7490.500; 1.31376
1044.41; 1817.800; 1522.700; 7585.300; 1.31269
1048.56; 1832.600; 1534.900; 7704.000; 1.31644
1052.70; 1819.800; 1519.500; 7789.500; 1.31971
1056.84; 1832.300; 1529.400; 7905.400; 1.32325
1060.98; 1807.900; 1501.100; 7985.000; 1.32498
1065.11; 1832.700; 1513.900; 8119.500; 1.31639
1069.25; 1844.900; 1526.700; 8264.000; 1.32579
1073.38; 1856.600; 1527.800; 8408.100; 1.32068
1077.52; 1875.600; 1546.500; 8548.800; 1.32791
1081.65; 1869.700; 1532.900; 8683.900; 1.32699
1085.77; 1873.500; 1527.000; 8829.600; 1.32377
1089.90; 1878.600; 1533.700; 8986.900; 1.33465
1094.03; 1857.100; 1500.400; 9113.600; 1.32926
1098.15; 1904.100; 1546.400; 9322.700; 1.33725
1102.27; 1853.900; 1489.800; 9441.600; 1.33924
1106.39; 1899.800; 1527.600; 9661.400; 1.33952
1110.51; 1932.700; 1551.400; 9878.200; 1.33921
1114.63; 1892.500; 1500.800;10067.700; 1.33987
1118.74; 1959.000; 1553.000;10360.700; 1.33634
1122.85; 1935.800; 1530.700;10522.800; 1.34630
1126.96; 1916.700; 1503.600;10642.400; 1.34483
1131.07; 1976.100; 1554.700;10786.500; 1.34059
1135.18; 1922.800; 1504.600;10802.100; 1.34698
1139.29; 1939.100; 1516.000;10868.600; 1.34449
1143.39; 1968.400; 1538.200;10912.400; 1.33826
1147.49; 1939.900; 1518.500;10897.900; 1.34748
1151.59; 1940.500; 1515.000;10914.000; 1.34418
1155.69; 1970.900; 1541.600;10966.800; 1.34153
1159.78; 1929.600; 1502.700;10951.200; 1.34504
1163.88; 1970.300; 1536.300;11019.900; 1.33948
1167.97; 1966.300; 1537.000;11049.100; 1.34552
1172.06; 1945.800; 1514.600;11052.300; 1.34476
1176.15; 1940.100; 1511.400;11073.900; 1.34842
1180.23; 1986.800; 1549.600;11155.900; 1.34188
1184.32; 1930.800; 1494.700;11140.100; 1.34473
1188.40; 1947.800; 1514.000;11201.700; 1.34893
1192.48; 1955.100; 1515.300;11260.500; 1.34554
1196.56; 1963.100; 1521.200;11309.800; 1.34540
1200.64; 1984.600; 1534.600;11380.300; 1.34003
1204.71; 1959.000; 1514.200;11415.100; 1.34751
1208.78; 1972.600; 1522.400;11476.100; 1.34458
1212.85; 1996.300; 1547.900;11559.600; 1.34884
1216.92; 1920.800; 1476.200;11533.500; 1.35451
1220.99; 1991.900; 1534.300;11668.800; 1.34532
1225.05; 1976.400; 1527.500;11719.100; 1.35609
1229.11; 1965.600; 1506.200;11777.200; 1.34942
1233.17; 2003.500; 1537.300;11867.500; 1.34554
1237.23; 1998.900; 1535.100;11935.000; 1.35070
1241.29; 1998.600; 1531.200;11992.800; 1.34991
1245.34; 2025.500; 1560.000;12107.000; 1.35521
1249.39; 1970.900; 1500.000;12117.900; 1.35311
1253.44; 1994.800; 1518.900;12212.500; 1.35161
1257.49; 2035.400; 1552.800;12334.500; 1.34910
1261.53; 2000.800; 1518.900;12369.900; 1.35251
1265.58; 2007.600; 1525.900;12452.600; 1.35571
1269.62; 2007.300; 1519.600;12529.800; 1.35364
1273.65; 2012.800; 1519.900;12603.400; 1.35192
1277.69; 2006.500; 1518.000;12681.800; 1.35895
1281.72; 2027.500; 1530.100;12773.400; 1.35419
1285.76; 2030.500; 1529.900;12851.500; 1.35442
1289.79; 2025.200; 1520.800;12909.400; 1.35370
1293.81; 2016.700; 1511.100;12974.600; 1.35551
1297.84; 1992.700; 1490.200;13004.900; 1.36012
1301.86; 2057.300; 1546.100;13137.300; 1.35554
1305.88; 2031.600; 1520.800;13163.800; 1.35781
1309.90; 2053.900; 1541.300;13243.300; 1.35848
1313.92; 2009.100; 1497.800;13236.900; 1.36096
1317.93; 2049.800; 1527.400;13321.700; 1.35367
1321.94; 2036.400; 1516.400;13349.300; 1.35709
1325.95; 2035.300; 1515.800;13392.300; 1.35910
1329.96; 2056.400; 1527.200;13449.200; 1.35273
1333.96; 2054.000; 1523.500;13501.700; 1.35371
1337.96; 2056.600; 1525.700;13575.100; 1.35595
1341.96; 2063.200; 1530.100;13604.900; 1.35507
1345.96; 2042.700; 1514.800;13535.100; 1.35736
1349.95; 2022.500; 1504.900;13357.000; 1.35980
1353.95; 2007.400; 1500.800;13080.300; 1.35902
1357.94; 2005.300; 1519.000;12810.900; 1.36586
1361.92; 2009.200; 1525.200;12577.700; 1.35862
1365.91; 1977.500; 1509.100;12495.800; 1.37025
1369.89; 1973.400; 1500.900;12522.200; 1.36783
1373.87; 1962.500; 1483.400;12502.700; 1.36173
1377.85; 2013.900; 1541.800;12256.400; 1.35594
1381.82; 1947.800; 1495.800;11839.800; 1.35955
1385.80; 1998.400; 1542.900;11856.600; 1.35493
1389.77; 1982.900; 1524.900;11869.500; 1.35385
1393.74; 1962.100; 1509.900;11804.200; 1.35727
1397.70; 2006.400; 1552.300;11918.000; 1.35845
1401.66; 1983.600; 1522.100;11986.800; 1.35556
1405.62; 1962.200; 1502.000;12055.500; 1.36045
1409.58; 2000.900; 1528.700;12203.600; 1.35424
1413.54; 1996.800; 1519.400;12293.200; 1.35349
1417.49; 1951.000; 1476.800;12292.900; 1.35811
1421.44; 2005.600; 1523.100;12384.600; 1.35239
1425.39; 1987.700; 1510.500;12382.800; 1.35762
1429.33; 2008.000; 1525.700;12395.900; 1.35292
1433.27; 2003.300; 1523.700;12370.200; 1.35441
1437.21; 1978.100; 1502.800;12323.500; 1.35729
1441.15; 2028.200; 1543.700;12339.600; 1.34797
1445.09; 2009.400; 1531.000;12292.800; 1.35209
1449.02; 1960.900; 1489.700;12200.500; 1.35662
1452.95; 2007.100; 1529.700;12230.100; 1.35052
1456.87; 1999.100; 1524.100;12175.900; 1.35073
1460.80; 1988.900; 1510.600;12112.200; 1.34567
1464.72; 1969.200; 1502.500;12023.800; 1.35303
1468.64; 1970.200; 1502.300;11961.600; 1.34935
1472.55; 1983.300; 1518.100;11913.700; 1.34921
1476.47; 1994.400; 1531.300;11884.300; 1.34939
1480.38; 1985.500; 1517.300;11801.000; 1.34172
1484.28; 1996.400; 1535.000;11762.600; 1.34570
1488.19; 1980.700; 1522.200;11690.100; 1.34589
1492.09; 1946.100; 1489.900;11596.700; 1.34546
1495.99; 1958.900; 1506.600;11539.600; 1.34600
1499.89; 1967.200; 1513.300;11504.200; 1.34264
1503.78; 1964.600; 1515.200;11427.600; 1.34355
1507.67; 1986.300; 1539.800;11381.400; 1.34324
1511.56; 1938.900; 1498.300;11268.800; 1.34587
1515.44; 1970.000; 1525.700;11237.600; 1.33963
1519.33; 1951.100; 1515.200;11135.600; 1.34381
1523.21; 1960.400; 1523.900;11078.700; 1.34024
1527.08; 1952.000; 1519.400;10990.300; 1.34030
1530.96; 1934.900; 1500.300;10886.000; 1.33438
1534.83; 1969.200; 1544.300;10845.200; 1.34024
1538.70; 1931.700; 1508.600;10715.900; 1.33769
1542.56; 1912.500; 1500.900;10619.900; 1.34547
1546.42; 1931.400; 1517.300;10554.500; 1.33893
1550.28; 1922.900; 1513.400;10453.100; 1.33907
1554.14; 1924.100; 1508.800;10345.500; 1.32793
1557.99; 1929.600; 1525.700;10266.900; 1.33530
1561.84; 1897.600; 1498.400;10122.900; 1.33454
1565.69; 1905.100; 1516.200;10052.800; 1.34145
1569.54; 1894.100; 1503.300; 9933.900; 1.33390
1573.38; 1889.100; 1501.700; 9824.400; 1.33210
1577.22; 1913.000; 1527.000; 9752.100; 1.32855
1581.05; 1889.900; 1512.400; 9625.200; 1.33225
1584.89; 1899.100; 1524.900; 9522.100; 1.32983
1588.72; 1888.900; 1517.700; 9409.100; 1.32755
1592.54; 1867.800; 1506.200; 9274.600; 1.33210
1596.37; 1882.900; 1517.200; 9177.600; 1.32113
1600.19; 1868.200; 1510.100; 9050.400; 1.32338
1604.01; 1838.400; 1486.400; 8899.400; 1.32345
1607.82; 1850.900; 1509.800; 8796.900; 1.32967
1611.63; 1820.000; 1480.100; 8624.900; 1.32264
1615.44; 1892.400; 1553.300; 8575.400; 1.31614
1619.25; 1815.000; 1486.200; 8361.300; 1.32035
1623.05; 1802.700; 1479.000; 8208.600; 1.31785
1626.85; 1831.000; 1513.000; 8103.300; 1.31648
1630.64; 1841.600; 1524.000; 7969.700; 1.30739
1634.44; 1809.000; 1504.600; 7800.200; 1.31559
1638.23; 1809.800; 1503.300; 7652.600; 1.30240
1642.01; 1806.400; 1506.800; 7500.000; 1.30112
1645.80; 1788.100; 1499.800; 7336.400; 1.30632
1649.58; 1789.600; 1507.600; 7165.100; 1.30238
1653.35; 1833.700; 1554.000; 7043.000; 1.29280
1657.13; 1753.300; 1486.500; 6816.300; 1.30053
1660.90; 1762.900; 1500.200; 6658.700; 1.29306
1664.67; 1743.600; 1492.900; 6464.500; 1.29734
1668.43; 1750.200; 1506.200; 6271.300; 1.29068
1672.19; 1759.300; 1522.100; 6011.600; 1.27708
1675.95; 1715.300; 1493.800; 5613.400; 1.26948
1679.70; 1742.400; 1530.900; 5235.900; 1.24348
1683.46; 1685.900; 1497.800; 4742.900; 1.23684
1687.20; 1682.200; 1511.400; 4295.600; 1.21221
1690.95; 1654.600; 1504.400; 3867.300; 1.19678
1694.69; 1649.600; 1514.400; 3526.700; 1.17272
1698.43; 1606.000; 1482.500; 3185.600; 1.13957
1702.16; 1615.900; 1497.600; 2968.200; 1.09451
1705.89; 1609.100; 1499.300; 2779.100; 1.06654
1709.62; 1589.000; 1493.100; 2618.100; 1.06933
1713.35; 1622.000; 1522.600; 2525.400; 1.00383
1717.07; 1582.300; 1492.000; 2393.400; 0.99923
1720.79; 1603.400; 1513.300; 2338.300; 0.96173
1724.50; 1602.600; 1514.000; 2272.300; 0.93241
1728.21; 1581.100; 1499.400; 2201.400; 0.93412
1731.92; 1576.200; 1495.900; 2152.500; 0.91259
1735.63; 1563.900; 1483.800; 2109.800; 0.89294
1739.33; 1606.000; 1525.100; 2113.700; 0.86187
1743.02; 1576.500; 1493.200; 2053.800; 0.82801
1746.72; 1570.300; 1494.300; 2031.700; 0.84948
1750.41; 1580.900; 1502.900; 2014.600; 0.81692
1754.10; 1594.000; 1515.500; 2011.500; 0.80061

