
Integration time [ms]:  10.000
Averaging Nr. [scans]: 10
Smoothing Nr. [pixels]: 0
Data measured with spectrometer [name]: 1911294U1
Wave   ;Sample   ;Dark     ;Reference;Absorbance
[nm]   ;[counts] ;[counts] ;[counts] ;[A.U]

 860.61; 1619.900; 1551.700; 1907.800; 0.71779
 864.82; 1573.100; 1505.600; 1955.500; 0.82381
 869.02; 1585.200; 1514.900; 2034.000; 0.86830
 873.23; 1613.400; 1530.300; 2122.800; 0.85309
 877.43; 1565.500; 1494.800; 2149.500; 0.96662
 881.63; 1604.900; 1530.800; 2256.000; 0.99064
 885.83; 1581.900; 1499.600; 2300.600; 0.98823
 890.03; 1579.300; 1501.000; 2363.200; 1.04185
 894.23; 1585.300; 1498.400; 2434.200; 1.03216
 898.42; 1571.900; 1490.200; 2489.500; 1.08747
 902.62; 1614.900; 1522.400; 2605.100; 1.06837
 906.81; 1582.500; 1488.700; 2644.500; 1.09068
 911.00; 1593.200; 1494.400; 2732.000; 1.09782
 915.19; 1604.800; 1503.000; 2840.700; 1.11861
 919.38; 1647.400; 1541.400; 2988.000; 1.13504
 923.57; 1586.500; 1477.600; 3060.100; 1.16232
 927.76; 1631.800; 1511.200; 3297.300; 1.17056
 931.94; 1623.700; 1493.300; 3511.600; 1.18971
 936.13; 1650.000; 1516.000; 3764.700; 1.22483
 940.31; 1620.500; 1484.900; 3931.100; 1.25623
 944.49; 1700.900; 1547.000; 4163.000; 1.23040
 948.67; 1680.300; 1518.900; 4297.000; 1.23584
 952.85; 1652.200; 1493.400; 4427.000; 1.26655
 957.03; 1668.000; 1501.100; 4604.000; 1.26931
 961.21; 1692.800; 1518.200; 4778.500; 1.27121
 965.38; 1689.500; 1507.600; 4921.400; 1.27341
 969.55; 1686.000; 1505.800; 5072.200; 1.29648
 973.73; 1714.100; 1520.500; 5253.800; 1.28519
 977.90; 1708.900; 1511.100; 5413.200; 1.29507
 982.06; 1723.400; 1518.800; 5592.700; 1.29910
 986.23; 1718.400; 1506.000; 5748.000; 1.30042
 990.40; 1737.400; 1519.400; 5941.100; 1.30713
 994.56; 1768.000; 1538.400; 6129.700; 1.30096
 998.72; 1772.400; 1541.900; 6290.500; 1.31389
1002.88; 1744.900; 1510.200; 6415.300; 1.32013
1007.04; 1768.500; 1529.400; 6579.000; 1.32468
1011.20; 1771.700; 1519.900; 6717.500; 1.31475
1015.36; 1795.500; 1543.200; 6867.300; 1.32433
1019.51; 1765.400; 1510.000; 6947.400; 1.32817
1023.67; 1782.500; 1530.900; 7080.200; 1.34353
1027.82; 1776.100; 1512.800; 7172.800; 1.33237
1031.97; 1790.100; 1525.500; 7291.600; 1.33829
1036.12; 1793.600; 1523.900; 7384.200; 1.33704
1040.27; 1792.700; 1520.100; 7490.500; 1.34048
1044.41; 1802.100; 1522.700; 7585.300; 1.33643
1048.56; 1819.500; 1534.900; 7704.000; 1.33599
1052.70; 1804.700; 1519.500; 7789.500; 1.34212
1056.84; 1817.100; 1529.400; 7905.400; 1.34561
1060.98; 1788.000; 1501.100; 7985.000; 1.35411
1065.11; 1810.500; 1513.900; 8119.500; 1.34774
1069.25; 1831.400; 1526.700; 8264.000; 1.34461
1073.38; 1840.400; 1527.800; 8408.100; 1.34262
1077.52; 1859.700; 1546.500; 8548.800; 1.34942
1081.65; 1848.500; 1532.900; 8683.900; 1.35523
1085.77; 1853.200; 1527.000; 8829.600; 1.34999
1089.90; 1861.400; 1533.700; 8986.900; 1.35687
1094.03; 1840.700; 1500.400; 9113.600; 1.34971
1098.15; 1885.100; 1546.400; 9322.700; 1.36096
1102.27; 1832.700; 1489.800; 9441.600; 1.36530
1106.39; 1884.200; 1527.600; 9661.400; 1.35811
1110.51; 1915.100; 1551.400; 9878.200; 1.35973
1114.63; 1868.600; 1500.800;10067.700; 1.36721
1118.74; 1937.600; 1553.000;10360.700; 1.35985
1122.85; 1924.700; 1530.700;10522.800; 1.35836
1126.96; 1895.100; 1503.600;10642.400; 1.36816
1131.07; 1961.000; 1554.700;10786.500; 1.35644
1135.18; 1907.200; 1504.600;10802.100; 1.36349
1139.29; 1917.700; 1516.000;10868.600; 1.36703
1143.39; 1940.400; 1538.200;10912.400; 1.36749
1147.49; 1923.000; 1518.500;10897.900; 1.36526
1151.59; 1921.700; 1515.000;10914.000; 1.36381
1155.69; 1945.600; 1541.600;10966.800; 1.36791
1159.78; 1908.500; 1502.700;10951.200; 1.36705
1163.88; 1946.000; 1536.300;11019.900; 1.36451
1167.97; 1946.200; 1537.000;11049.100; 1.36634
1172.06; 1925.700; 1514.600;11052.300; 1.36550
1176.15; 1920.800; 1511.400;11073.900; 1.36842
1180.23; 1967.300; 1549.600;11155.900; 1.36169
1184.32; 1916.200; 1494.700;11140.100; 1.35952
1188.40; 1932.100; 1514.000;11201.700; 1.36494
1192.48; 1937.900; 1515.300;11260.500; 1.36286
1196.56; 1943.700; 1521.200;11309.800; 1.36489
1200.64; 1963.800; 1534.600;11380.300; 1.36059
1204.71; 1939.900; 1514.200;11415.100; 1.36657
1208.78; 1955.000; 1522.400;11476.100; 1.36190
1212.85; 1976.000; 1547.900;11559.600; 1.36896
1216.92; 1906.900; 1476.200;11533.500; 1.36831
1220.99; 1970.000; 1534.300;11668.800; 1.36661
1225.05; 1962.500; 1527.500;11719.100; 1.36975
1229.11; 1945.400; 1506.200;11777.200; 1.36895
1233.17; 1981.800; 1537.300;11867.500; 1.36624
1237.23; 1979.600; 1535.100;11935.000; 1.36916
1241.29; 1980.000; 1531.200;11992.800; 1.36755
1245.34; 2008.400; 1560.000;12107.000; 1.37146
1249.39; 1951.900; 1500.000;12117.900; 1.37100
1253.44; 1976.300; 1518.900;12212.500; 1.36883
1257.49; 2017.000; 1552.800;12334.500; 1.36598
1261.53; 1980.200; 1518.900;12369.900; 1.37149
1265.58; 1985.400; 1525.900;12452.600; 1.37620
1269.62; 1985.900; 1519.600;12529.800; 1.37313
1273.65; 1990.300; 1519.900;12603.400; 1.37221
1277.69; 1987.900; 1518.000;12681.800; 1.37581
1281.72; 2011.800; 1530.100;12773.400; 1.36812
1285.76; 2010.300; 1529.900;12851.500; 1.37230
1289.79; 2006.300; 1520.800;12909.400; 1.37028
1293.81; 2000.000; 1511.100;12974.600; 1.37010
1297.84; 1970.700; 1490.200;13004.900; 1.37956
1301.86; 2040.000; 1546.100;13137.300; 1.37049
1305.88; 2012.200; 1520.800;13163.800; 1.37463
1309.90; 2033.400; 1541.300;13243.300; 1.37621
1313.92; 1991.900; 1497.800;13236.900; 1.37582
1317.93; 2028.900; 1527.400;13321.700; 1.37140
1321.94; 2016.800; 1516.400;13349.300; 1.37377
1325.95; 2021.700; 1515.800;13392.300; 1.37062
1329.96; 2035.600; 1527.200;13449.200; 1.37014
1333.96; 2032.800; 1523.500;13501.700; 1.37142
1337.96; 2034.900; 1525.700;13575.100; 1.37408
1341.96; 2045.900; 1530.100;13604.900; 1.36940
1345.96; 2017.800; 1514.800;13535.100; 1.37835
1349.95; 2007.100; 1504.900;13357.000; 1.37292
1353.95; 1987.900; 1500.800;13080.300; 1.37607
1357.94; 1991.900; 1519.000;12810.900; 1.37800
1361.92; 1987.900; 1525.200;12577.700; 1.37816
1365.91; 1962.900; 1509.100;12495.800; 1.38400
1369.89; 1954.700; 1500.900;12522.200; 1.38537
1373.87; 1943.800; 1483.400;12502.700; 1.37902
1377.85; 1995.600; 1541.800;12256.400; 1.37311
1381.82; 1929.600; 1495.800;11839.800; 1.37740
1385.80; 1981.800; 1542.900;11856.600; 1.37105
1389.77; 1966.100; 1524.900;11869.500; 1.37008
1393.74; 1941.400; 1509.900;11804.200; 1.37762
1397.70; 1991.700; 1552.300;11918.000; 1.37274
1401.66; 1964.500; 1522.100;11986.800; 1.37391
1405.62; 1945.900; 1502.000;12055.500; 1.37611
1409.58; 1980.200; 1528.700;12203.600; 1.37371
1413.54; 1977.400; 1519.400;12293.200; 1.37150
1417.49; 1932.700; 1476.800;12292.900; 1.37520
1421.44; 1982.000; 1523.100;12384.600; 1.37417
1425.39; 1971.400; 1510.500;12382.800; 1.37271
1429.33; 1992.100; 1525.700;12395.900; 1.36748
1433.27; 1984.400; 1523.700;12370.200; 1.37187
1437.21; 1960.200; 1502.800;12323.500; 1.37396
1441.15; 2007.800; 1543.700;12339.600; 1.36665
1445.09; 1992.500; 1531.000;12292.800; 1.36771
1449.02; 1944.200; 1489.700;12200.500; 1.37229
1452.95; 1987.400; 1529.700;12230.100; 1.36882
1456.87; 1985.000; 1524.100;12175.900; 1.36382
1460.80; 1967.300; 1510.600;12112.200; 1.36574
1464.72; 1952.900; 1502.500;12023.800; 1.36847
1468.64; 1955.300; 1502.300;11961.600; 1.36340
1472.55; 1970.200; 1518.100;11913.700; 1.36162
1476.47; 1975.300; 1531.300;11884.300; 1.36768
1480.38; 1969.600; 1517.300;11801.000; 1.35672
1484.28; 1974.900; 1535.000;11762.600; 1.36642
1488.19; 1962.200; 1522.200;11690.100; 1.36378
1492.09; 1932.300; 1489.900;11596.700; 1.35880
1495.99; 1946.700; 1506.600;11539.600; 1.35788
1499.89; 1950.700; 1513.300;11504.200; 1.35873
1503.78; 1948.000; 1515.200;11427.600; 1.35989
1507.67; 1965.200; 1539.800;11381.400; 1.36427
1511.56; 1925.400; 1498.300;11268.800; 1.35939
1515.44; 1948.800; 1525.700;11237.600; 1.36086
1519.33; 1936.000; 1515.200;11135.600; 1.35912
1523.21; 1947.000; 1523.900;11078.700; 1.35378
1527.08; 1933.700; 1519.400;10990.300; 1.35908
1530.96; 1915.500; 1500.300;10886.000; 1.35421
1534.83; 1954.200; 1544.300;10845.200; 1.35585
1538.70; 1914.800; 1508.600;10715.900; 1.35539
1542.56; 1896.500; 1500.900;10619.900; 1.36269
1546.42; 1918.100; 1517.300;10554.500; 1.35311
1550.28; 1910.100; 1513.400;10453.100; 1.35286
1554.14; 1907.300; 1508.800;10345.500; 1.34586
1557.99; 1912.300; 1525.700;10266.900; 1.35431
1561.84; 1875.000; 1498.400;10122.900; 1.35985
1565.69; 1896.100; 1516.200;10052.800; 1.35162
1569.54; 1883.900; 1503.300; 9933.900; 1.34539
1573.38; 1875.100; 1501.700; 9824.400; 1.34809
1577.22; 1896.900; 1527.000; 9752.100; 1.34706
1581.05; 1881.400; 1512.400; 9625.200; 1.34214
1584.89; 1887.500; 1524.900; 9522.100; 1.34351
1588.72; 1875.300; 1517.700; 9409.100; 1.34376
1592.54; 1851.300; 1506.200; 9274.600; 1.35239
1596.37; 1870.700; 1517.200; 9177.600; 1.33586
1600.19; 1853.000; 1510.100; 9050.400; 1.34222
1604.01; 1828.600; 1486.400; 8899.400; 1.33571
1607.82; 1835.600; 1509.800; 8796.900; 1.34960
1611.63; 1810.100; 1480.100; 8624.900; 1.33548
1615.44; 1878.300; 1553.300; 8575.400; 1.33458
1619.25; 1803.600; 1486.200; 8361.300; 1.33567
1623.05; 1788.900; 1479.000; 8208.600; 1.33677
1626.85; 1819.800; 1513.000; 8103.300; 1.33205
1630.64; 1828.300; 1524.000; 7969.700; 1.32597
1634.44; 1802.700; 1504.600; 7800.200; 1.32468
1638.23; 1797.000; 1503.300; 7652.600; 1.32092
1642.01; 1789.600; 1506.800; 7500.000; 1.32618
1645.80; 1774.900; 1499.800; 7336.400; 1.32667
1649.58; 1776.000; 1507.600; 7165.100; 1.32384
1653.35; 1821.000; 1554.000; 7043.000; 1.31298
1657.13; 1739.500; 1486.500; 6816.300; 1.32359
1660.90; 1750.600; 1500.200; 6658.700; 1.31389
1664.67; 1730.500; 1492.900; 6464.500; 1.32065
1668.43; 1741.000; 1506.200; 6271.300; 1.30737
1672.19; 1753.600; 1522.100; 6011.600; 1.28765
1675.95; 1700.100; 1493.800; 5613.400; 1.30036
1679.70; 1726.200; 1530.900; 5235.900; 1.27809
1683.46; 1675.900; 1497.800; 4742.900; 1.26056
1687.20; 1668.900; 1511.400; 4295.600; 1.24742
1690.95; 1645.500; 1504.400; 3867.300; 1.22392
1694.69; 1642.700; 1514.400; 3526.700; 1.19547
1698.43; 1596.700; 1482.500; 3185.600; 1.17357
1702.16; 1604.400; 1497.600; 2968.200; 1.13892
1705.89; 1600.000; 1499.300; 2779.100; 1.10411
1709.62; 1584.100; 1493.100; 2618.100; 1.09211
1713.35; 1619.100; 1522.600; 2525.400; 1.01669
1717.07; 1576.000; 1492.000; 2393.400; 1.03064
1720.79; 1599.200; 1513.300; 2338.300; 0.98246
1724.50; 1598.900; 1514.000; 2272.300; 0.95093
1728.21; 1577.800; 1499.400; 2201.400; 0.95202
1731.92; 1576.800; 1495.900; 2152.500; 0.90935
1735.63; 1560.200; 1483.800; 2109.800; 0.91348
1739.33; 1603.800; 1525.100; 2113.700; 0.87385
1743.02; 1571.200; 1493.200; 2053.800; 0.85656
1746.72; 1568.900; 1494.300; 2031.700; 0.85756
1750.41; 1576.700; 1502.900; 2014.600; 0.84096
1754.10; 1585.600; 1515.500; 2011.500; 0.84976

