
Integration time [ms]:  10.000
Averaging Nr. [scans]: 10
Smoothing Nr. [pixels]: 0
Data measured with spectrometer [name]: 1911294U1
Wave   ;Sample   ;Dark     ;Reference;Absorbance
[nm]   ;[counts] ;[counts] ;[counts] ;[A.U]

 860.61; 1623.900; 1551.700; 1907.800; 0.69303
 864.82; 1576.700; 1505.600; 1955.500; 0.80125
 869.02; 1584.500; 1514.900; 2034.000; 0.87264
 873.23; 1610.000; 1530.300; 2122.800; 0.87123
 877.43; 1566.400; 1494.800; 2149.500; 0.96113
 881.63; 1614.200; 1530.800; 2256.000; 0.93929
 885.83; 1585.300; 1499.600; 2300.600; 0.97065
 890.03; 1590.100; 1501.000; 2363.200; 0.98573
 894.23; 1593.800; 1498.400; 2434.200; 0.99163
 898.42; 1575.200; 1490.200; 2489.500; 1.07028
 902.62; 1620.400; 1522.400; 2605.100; 1.04328
 906.81; 1585.400; 1488.700; 2644.500; 1.07746
 911.00; 1594.900; 1494.400; 2732.000; 1.09041
 915.19; 1607.300; 1503.000; 2840.700; 1.10807
 919.38; 1654.700; 1541.400; 2988.000; 1.10612
 923.57; 1589.500; 1477.600; 3060.100; 1.15051
 927.76; 1638.900; 1511.200; 3297.300; 1.14571
 931.94; 1623.100; 1493.300; 3511.600; 1.19171
 936.13; 1657.700; 1516.000; 3764.700; 1.20056
 940.31; 1634.100; 1484.900; 3931.100; 1.21472
 944.49; 1705.200; 1547.000; 4163.000; 1.21843
 948.67; 1688.000; 1518.900; 4297.000; 1.21560
 952.85; 1665.500; 1493.400; 4427.000; 1.23162
 957.03; 1675.500; 1501.100; 4604.000; 1.25022
 961.21; 1695.400; 1518.200; 4778.500; 1.26479
 965.38; 1698.300; 1507.600; 4921.400; 1.25289
 969.55; 1693.500; 1505.800; 5072.200; 1.27877
 973.73; 1722.700; 1520.500; 5253.800; 1.26631
 977.90; 1719.100; 1511.100; 5413.200; 1.27324
 982.06; 1730.100; 1518.800; 5592.700; 1.28511
 986.23; 1728.800; 1506.000; 5748.000; 1.27966
 990.40; 1744.700; 1519.400; 5941.100; 1.29283
 994.56; 1772.900; 1538.400; 6129.700; 1.29179
 998.72; 1785.400; 1541.900; 6290.500; 1.29007
1002.88; 1756.300; 1510.200; 6415.300; 1.29954
1007.04; 1776.300; 1529.400; 6579.000; 1.31074
1011.20; 1779.100; 1519.900; 6717.500; 1.30217
1015.36; 1804.200; 1543.200; 6867.300; 1.30961
1019.51; 1773.600; 1510.000; 6947.400; 1.31445
1023.67; 1792.800; 1530.900; 7080.200; 1.32610
1027.82; 1789.400; 1512.800; 7172.800; 1.31096
1031.97; 1803.600; 1525.500; 7291.600; 1.31668
1036.12; 1800.100; 1523.900; 7384.200; 1.32670
1040.27; 1797.300; 1520.100; 7490.500; 1.33321
1044.41; 1809.800; 1522.700; 7585.300; 1.32463
1048.56; 1826.900; 1534.900; 7704.000; 1.32484
1052.70; 1815.200; 1519.500; 7789.500; 1.32642
1056.84; 1825.200; 1529.400; 7905.400; 1.33355
1060.98; 1800.200; 1501.100; 7985.000; 1.33602
1065.11; 1822.700; 1513.900; 8119.500; 1.33023
1069.25; 1837.000; 1526.700; 8264.000; 1.33670
1073.38; 1851.000; 1527.800; 8408.100; 1.32814
1077.52; 1865.500; 1546.500; 8548.800; 1.34145
1081.65; 1860.800; 1532.900; 8683.900; 1.33863
1085.77; 1862.000; 1527.000; 8829.600; 1.33843
1089.90; 1870.600; 1533.700; 8986.900; 1.34484
1094.03; 1846.000; 1500.400; 9113.600; 1.34299
1098.15; 1896.200; 1546.400; 9322.700; 1.34695
1102.27; 1844.300; 1489.800; 9441.600; 1.35085
1106.39; 1891.300; 1527.600; 9661.400; 1.34955
1110.51; 1926.500; 1551.400; 9878.200; 1.34633
1114.63; 1882.300; 1500.800;10067.700; 1.35133
1118.74; 1949.600; 1553.000;10360.700; 1.34651
1122.85; 1926.800; 1530.700;10522.800; 1.35606
1126.96; 1906.100; 1503.600;10642.400; 1.35612
1131.07; 1971.300; 1554.700;10786.500; 1.34557
1135.18; 1912.000; 1504.600;10802.100; 1.35835
1139.29; 1926.200; 1516.000;10868.600; 1.35794
1143.39; 1953.300; 1538.200;10912.400; 1.35378
1147.49; 1927.400; 1518.500;10897.900; 1.36056
1151.59; 1926.500; 1515.000;10914.000; 1.35871
1155.69; 1962.500; 1541.600;10966.800; 1.35011
1159.78; 1920.800; 1502.700;10951.200; 1.35408
1163.88; 1953.200; 1536.300;11019.900; 1.35694
1167.97; 1960.200; 1537.000;11049.100; 1.35173
1172.06; 1936.600; 1514.600;11052.300; 1.35413
1176.15; 1932.400; 1511.400;11073.900; 1.35629
1180.23; 1977.900; 1549.600;11155.900; 1.35081
1184.32; 1922.000; 1494.700;11140.100; 1.35359
1188.40; 1940.200; 1514.000;11201.700; 1.35661
1192.48; 1947.100; 1515.300;11260.500; 1.35351
1196.56; 1955.500; 1521.200;11309.800; 1.35293
1200.64; 1972.700; 1534.600;11380.300; 1.35167
1204.71; 1944.600; 1514.200;11415.100; 1.36180
1208.78; 1962.900; 1522.400;11476.100; 1.35404
1212.85; 1989.300; 1547.900;11559.600; 1.35568
1216.92; 1910.200; 1476.200;11533.500; 1.36499
1220.99; 1980.500; 1534.300;11668.800; 1.35627
1225.05; 1974.000; 1527.500;11719.100; 1.35842
1229.11; 1955.300; 1506.200;11777.200; 1.35927
1233.17; 1991.600; 1537.300;11867.500; 1.35677
1237.23; 1992.000; 1535.100;11935.000; 1.35721
1241.29; 1991.100; 1531.200;11992.800; 1.35693
1245.34; 2018.600; 1560.000;12107.000; 1.36169
1249.39; 1964.000; 1500.000;12117.900; 1.35952
1253.44; 1986.100; 1518.900;12212.500; 1.35962
1257.49; 2026.500; 1552.800;12334.500; 1.35718
1261.53; 1989.800; 1518.900;12369.900; 1.36254
1265.58; 2002.600; 1525.900;12452.600; 1.36024
1269.62; 2001.700; 1519.600;12529.800; 1.35866
1273.65; 2002.000; 1519.900;12603.400; 1.36154
1277.69; 1999.800; 1518.000;12681.800; 1.36495
1281.72; 2021.800; 1530.100;12773.400; 1.35919
1285.76; 2017.500; 1529.900;12851.500; 1.36584
1289.79; 2017.700; 1520.800;12909.400; 1.36020
1293.81; 2007.700; 1511.100;12974.600; 1.36331
1297.84; 1984.800; 1490.200;13004.900; 1.36700
1301.86; 2049.400; 1546.100;13137.300; 1.36230
1305.88; 2020.200; 1520.800;13163.800; 1.36762
1309.90; 2043.800; 1541.300;13243.300; 1.36712
1313.92; 2004.500; 1497.800;13236.900; 1.36488
1317.93; 2038.900; 1527.400;13321.700; 1.36283
1321.94; 2028.100; 1516.400;13349.300; 1.36408
1325.95; 2031.000; 1515.800;13392.300; 1.36271
1329.96; 2052.200; 1527.200;13449.200; 1.35619
1333.96; 2045.400; 1523.500;13501.700; 1.36080
1337.96; 2049.000; 1525.700;13575.100; 1.36221
1341.96; 2056.200; 1530.100;13604.900; 1.36081
1345.96; 2028.900; 1514.800;13535.100; 1.36887
1349.95; 2011.600; 1504.900;13357.000; 1.36904
1353.95; 1997.500; 1500.800;13080.300; 1.36760
1357.94; 2001.400; 1519.000;12810.900; 1.36936
1361.92; 1997.200; 1525.200;12577.700; 1.36952
1365.91; 1977.000; 1509.100;12495.800; 1.37071
1369.89; 1967.100; 1500.900;12522.200; 1.37366
1373.87; 1955.900; 1483.400;12502.700; 1.36775
1377.85; 2001.700; 1541.800;12256.400; 1.36731
1381.82; 1937.700; 1495.800;11839.800; 1.36936
1385.80; 1990.700; 1542.900;11856.600; 1.36233
1389.77; 1976.300; 1524.900;11869.500; 1.36015
1393.74; 1953.900; 1509.900;11804.200; 1.36521
1397.70; 2005.200; 1552.300;11918.000; 1.35960
1401.66; 1975.100; 1522.100;11986.800; 1.36363
1405.62; 1955.300; 1502.000;12055.500; 1.36701
1409.58; 1993.700; 1528.700;12203.600; 1.36091
1413.54; 1985.100; 1519.400;12293.200; 1.36426
1417.49; 1945.300; 1476.800;12292.900; 1.36336
1421.44; 1999.500; 1523.100;12384.600; 1.35792
1425.39; 1981.000; 1510.500;12382.800; 1.36376
1429.33; 2000.400; 1525.700;12395.900; 1.35982
1433.27; 1994.700; 1523.700;12370.200; 1.36227
1437.21; 1970.000; 1502.800;12323.500; 1.36475
1441.15; 2017.900; 1543.700;12339.600; 1.35730
1445.09; 2002.500; 1531.000;12292.800; 1.35840
1449.02; 1953.800; 1489.700;12200.500; 1.36321
1452.95; 2002.300; 1529.700;12230.100; 1.35491
1456.87; 1999.100; 1524.100;12175.900; 1.35073
1460.80; 1980.300; 1510.600;12112.200; 1.35355
1464.72; 1964.500; 1502.500;12023.800; 1.35743
1468.64; 1962.600; 1502.300;11961.600; 1.35646
1472.55; 1974.600; 1518.100;11913.700; 1.35741
1476.47; 1989.200; 1531.300;11884.300; 1.35430
1480.38; 1975.600; 1517.300;11801.000; 1.35100
1484.28; 1988.700; 1535.000;11762.600; 1.35300
1488.19; 1972.400; 1522.200;11690.100; 1.35383
1492.09; 1934.200; 1489.900;11596.700; 1.35694
1495.99; 1956.100; 1506.600;11539.600; 1.34870
1499.89; 1962.000; 1513.300;11504.200; 1.34765
1503.78; 1957.400; 1515.200;11427.600; 1.35056
1507.67; 1980.400; 1539.800;11381.400; 1.34902
1511.56; 1937.700; 1498.300;11268.800; 1.34706
1515.44; 1963.300; 1525.700;11237.600; 1.34623
1519.33; 1945.200; 1515.200;11135.600; 1.34972
1523.21; 1953.200; 1523.900;11078.700; 1.34746
1527.08; 1941.500; 1519.400;10990.300; 1.35098
1530.96; 1925.400; 1500.300;10886.000; 1.34398
1534.83; 1967.200; 1544.300;10845.200; 1.34229
1538.70; 1920.000; 1508.600;10715.900; 1.34987
1542.56; 1909.200; 1500.900;10619.900; 1.34897
1546.42; 1925.700; 1517.300;10554.500; 1.34495
1550.28; 1915.000; 1513.400;10453.100; 1.34753
1554.14; 1913.300; 1508.800;10345.500; 1.33937
1557.99; 1923.300; 1525.700;10266.900; 1.34212
1561.84; 1890.900; 1498.400;10122.900; 1.34189
1565.69; 1898.200; 1516.200;10052.800; 1.34922
1569.54; 1891.500; 1503.300; 9933.900; 1.33680
1573.38; 1881.200; 1501.700; 9824.400; 1.34105
1577.22; 1904.400; 1527.000; 9752.100; 1.33834
1581.05; 1885.200; 1512.400; 9625.200; 1.33769
1584.89; 1892.400; 1524.900; 9522.100; 1.33768
1588.72; 1884.000; 1517.700; 9409.100; 1.33332
1592.54; 1864.100; 1506.200; 9274.600; 1.33657
1596.37; 1877.300; 1517.200; 9177.600; 1.32783
1600.19; 1864.900; 1510.100; 9050.400; 1.32741
1604.01; 1832.200; 1486.400; 8899.400; 1.33117
1607.82; 1844.700; 1509.800; 8796.900; 1.33764
1611.63; 1813.000; 1480.100; 8624.900; 1.33168
1615.44; 1886.000; 1553.300; 8575.400; 1.32441
1619.25; 1807.200; 1486.200; 8361.300; 1.33077
1623.05; 1794.900; 1479.000; 8208.600; 1.32844
1626.85; 1827.200; 1513.000; 8103.300; 1.32170
1630.64; 1836.900; 1524.000; 7969.700; 1.31386
1634.44; 1805.000; 1504.600; 7800.200; 1.32134
1638.23; 1803.300; 1503.300; 7652.600; 1.31170
1642.01; 1793.800; 1506.800; 7500.000; 1.31978
1645.80; 1784.300; 1499.800; 7336.400; 1.31208
1649.58; 1781.300; 1507.600; 7165.100; 1.31535
1653.35; 1826.600; 1554.000; 7043.000; 1.30397
1657.13; 1748.900; 1486.500; 6816.300; 1.30775
1660.90; 1758.200; 1500.200; 6658.700; 1.30090
1664.67; 1735.900; 1492.900; 6464.500; 1.31089
1668.43; 1745.400; 1506.200; 6271.300; 1.29931
1672.19; 1755.600; 1522.100; 6011.600; 1.28391
1675.95; 1707.700; 1493.800; 5613.400; 1.28464
1679.70; 1738.700; 1530.900; 5235.900; 1.25114
1683.46; 1679.500; 1497.800; 4742.900; 1.25187
1687.20; 1677.100; 1511.400; 4295.600; 1.22538
1690.95; 1655.400; 1504.400; 3867.300; 1.19447
1694.69; 1649.700; 1514.400; 3526.700; 1.17239
1698.43; 1601.200; 1482.500; 3185.600; 1.15679
1702.16; 1607.100; 1497.600; 2968.200; 1.12808
1705.89; 1607.300; 1499.300; 2779.100; 1.07372
1709.62; 1590.400; 1493.100; 2618.100; 1.06304
1713.35; 1625.300; 1522.600; 2525.400; 0.98964
1717.07; 1577.900; 1492.000; 2393.400; 1.02092
1720.79; 1599.700; 1513.300; 2338.300; 0.97994
1724.50; 1601.500; 1514.000; 2272.300; 0.93783
1728.21; 1579.700; 1499.400; 2201.400; 0.94162
1731.92; 1575.600; 1495.900; 2152.500; 0.91584
1735.63; 1564.400; 1483.800; 2109.800; 0.89024
1739.33; 1604.600; 1525.100; 2113.700; 0.86945
1743.02; 1573.100; 1493.200; 2053.800; 0.84611
1746.72; 1570.500; 1494.300; 2031.700; 0.84834
1750.41; 1577.900; 1502.900; 2014.600; 0.83395
1754.10; 1585.200; 1515.500; 2011.500; 0.85225

