
Integration time [ms]:  10.000
Averaging Nr. [scans]: 10
Smoothing Nr. [pixels]: 0
Data measured with spectrometer [name]: 1911294U1
Wave   ;Sample   ;Dark     ;Reference;Absorbance
[nm]   ;[counts] ;[counts] ;[counts] ;[A.U]

 860.61; 1615.400; 1551.700; 1907.800; 0.74743
 864.82; 1567.700; 1505.600; 1955.500; 0.86002
 869.02; 1578.200; 1514.900; 2034.000; 0.91385
 873.23; 1602.000; 1530.300; 2122.800; 0.91717
 877.43; 1559.900; 1494.800; 2149.500; 1.00246
 881.63; 1600.900; 1530.800; 2256.000; 1.01474
 885.83; 1579.700; 1499.600; 2300.600; 1.00000
 890.03; 1576.900; 1501.000; 2363.200; 1.05537
 894.23; 1583.700; 1498.400; 2434.200; 1.04023
 898.42; 1572.200; 1490.200; 2489.500; 1.08588
 902.62; 1613.800; 1522.400; 2605.100; 1.07356
 906.81; 1575.700; 1488.700; 2644.500; 1.12336
 911.00; 1586.400; 1494.400; 2732.000; 1.12879
 915.19; 1599.200; 1503.000; 2840.700; 1.14318
 919.38; 1649.700; 1541.400; 2988.000; 1.12572
 923.57; 1583.000; 1477.600; 3060.100; 1.17650
 927.76; 1626.900; 1511.200; 3297.300; 1.18857
 931.94; 1617.300; 1493.300; 3511.600; 1.21156
 936.13; 1651.000; 1516.000; 3764.700; 1.22160
 940.31; 1622.600; 1484.900; 3931.100; 1.24956
 944.49; 1695.100; 1547.000; 4163.000; 1.24708
 948.67; 1675.200; 1518.900; 4297.000; 1.24979
 952.85; 1655.800; 1493.400; 4427.000; 1.25681
 957.03; 1668.800; 1501.100; 4604.000; 1.26723
 961.21; 1688.300; 1518.200; 4778.500; 1.28255
 965.38; 1688.800; 1507.600; 4921.400; 1.27508
 969.55; 1686.600; 1505.800; 5072.200; 1.29503
 973.73; 1706.900; 1520.500; 5253.800; 1.30165
 977.90; 1700.900; 1511.100; 5413.200; 1.31300
 982.06; 1720.600; 1518.800; 5592.700; 1.30509
 986.23; 1713.000; 1506.000; 5748.000; 1.31160
 990.40; 1735.900; 1519.400; 5941.100; 1.31013
 994.56; 1764.700; 1538.400; 6129.700; 1.30725
 998.72; 1766.000; 1541.900; 6290.500; 1.32612
1002.88; 1742.800; 1510.200; 6415.300; 1.32404
1007.04; 1766.600; 1529.400; 6579.000; 1.32814
1011.20; 1765.600; 1519.900; 6717.500; 1.32540
1015.36; 1793.800; 1543.200; 6867.300; 1.32727
1019.51; 1762.700; 1510.000; 6947.400; 1.33279
1023.67; 1782.000; 1530.900; 7080.200; 1.34439
1027.82; 1773.800; 1512.800; 7172.800; 1.33618
1031.97; 1790.300; 1525.500; 7291.600; 1.33796
1036.12; 1787.000; 1523.900; 7384.200; 1.34780
1040.27; 1790.400; 1520.100; 7490.500; 1.34416
1044.41; 1798.600; 1522.700; 7585.300; 1.34191
1048.56; 1817.100; 1534.900; 7704.000; 1.33966
1052.70; 1801.100; 1519.500; 7789.500; 1.34763
1056.84; 1815.600; 1529.400; 7905.400; 1.34788
1060.98; 1790.200; 1501.100; 7985.000; 1.35079
1065.11; 1812.800; 1513.900; 8119.500; 1.34439
1069.25; 1825.500; 1526.700; 8264.000; 1.35311
1073.38; 1838.600; 1527.800; 8408.100; 1.34513
1077.52; 1854.900; 1546.500; 8548.800; 1.35613
1081.65; 1849.400; 1532.900; 8683.900; 1.35399
1085.77; 1848.500; 1527.000; 8829.600; 1.35630
1089.90; 1864.800; 1533.700; 8986.900; 1.35238
1094.03; 1832.500; 1500.400; 9113.600; 1.36030
1098.15; 1883.300; 1546.400; 9322.700; 1.36327
1102.27; 1833.400; 1489.800; 9441.600; 1.36441
1106.39; 1880.600; 1527.600; 9661.400; 1.36252
1110.51; 1919.300; 1551.400; 9878.200; 1.35475
1114.63; 1869.000; 1500.800;10067.700; 1.36674
1118.74; 1935.600; 1553.000;10360.700; 1.36212
1122.85; 1913.600; 1530.700;10522.800; 1.37078
1126.96; 1894.000; 1503.600;10642.400; 1.36938
1131.07; 1958.000; 1554.700;10786.500; 1.35966
1135.18; 1899.900; 1504.600;10802.100; 1.37144
1139.29; 1921.500; 1516.000;10868.600; 1.36294
1143.39; 1938.900; 1538.200;10912.400; 1.36911
1147.49; 1913.200; 1518.500;10897.900; 1.37591
1151.59; 1918.700; 1515.000;10914.000; 1.36702
1155.69; 1948.900; 1541.600;10966.800; 1.36438
1159.78; 1906.900; 1502.700;10951.200; 1.36877
1163.88; 1948.400; 1536.300;11019.900; 1.36197
1167.97; 1949.900; 1537.000;11049.100; 1.36243
1172.06; 1922.700; 1514.600;11052.300; 1.36868
1176.15; 1919.700; 1511.400;11073.900; 1.36959
1180.23; 1969.300; 1549.600;11155.900; 1.35962
1184.32; 1909.100; 1494.700;11140.100; 1.36690
1188.40; 1927.000; 1514.000;11201.700; 1.37027
1192.48; 1933.400; 1515.300;11260.500; 1.36751
1196.56; 1938.500; 1521.200;11309.800; 1.37027
1200.64; 1958.600; 1534.600;11380.300; 1.36588
1204.71; 1936.000; 1514.200;11415.100; 1.37057
1208.78; 1947.400; 1522.400;11476.100; 1.36960
1212.85; 1975.100; 1547.900;11559.600; 1.36988
1216.92; 1902.200; 1476.200;11533.500; 1.37307
1220.99; 1966.800; 1534.300;11668.800; 1.36982
1225.05; 1962.500; 1527.500;11719.100; 1.36975
1229.11; 1939.700; 1506.200;11777.200; 1.37462
1233.17; 1977.100; 1537.300;11867.500; 1.37085
1237.23; 1980.300; 1535.100;11935.000; 1.36847
1241.29; 1972.200; 1531.200;11992.800; 1.37516
1245.34; 2004.800; 1560.000;12107.000; 1.37496
1249.39; 1947.300; 1500.000;12117.900; 1.37544
1253.44; 1971.700; 1518.900;12212.500; 1.37322
1257.49; 2013.000; 1552.800;12334.500; 1.36974
1261.53; 1978.800; 1518.900;12369.900; 1.37281
1265.58; 1984.900; 1525.900;12452.600; 1.37668
1269.62; 1988.600; 1519.600;12529.800; 1.37062
1273.65; 1989.800; 1519.900;12603.400; 1.37267
1277.69; 1985.100; 1518.000;12681.800; 1.37840
1281.72; 2007.900; 1530.100;12773.400; 1.37165
1285.76; 2009.600; 1529.900;12851.500; 1.37294
1289.79; 2004.000; 1520.800;12909.400; 1.37234
1293.81; 1997.000; 1511.100;12974.600; 1.37277
1297.84; 1973.900; 1490.200;13004.900; 1.37668
1301.86; 2035.300; 1546.100;13137.300; 1.37464
1305.88; 2006.000; 1520.800;13163.800; 1.38014
1309.90; 2029.200; 1541.300;13243.300; 1.37993
1313.92; 1985.800; 1497.800;13236.900; 1.38121
1317.93; 2026.100; 1527.400;13321.700; 1.37383
1321.94; 2014.700; 1516.400;13349.300; 1.37560
1325.95; 2012.600; 1515.800;13392.300; 1.37851
1329.96; 2033.300; 1527.200;13449.200; 1.37211
1333.96; 2027.500; 1523.500;13501.700; 1.37596
1337.96; 2031.800; 1525.700;13575.100; 1.37673
1341.96; 2043.700; 1530.100;13604.900; 1.37125
1345.96; 2018.600; 1514.800;13535.100; 1.37766
1349.95; 1996.700; 1504.900;13357.000; 1.38201
1353.95; 1982.400; 1500.800;13080.300; 1.38100
1357.94; 1992.600; 1519.000;12810.900; 1.37736
1361.92; 1988.400; 1525.200;12577.700; 1.37769
1365.91; 1958.200; 1509.100;12495.800; 1.38852
1369.89; 1954.500; 1500.900;12522.200; 1.38556
1373.87; 1943.000; 1483.400;12502.700; 1.37977
1377.85; 1989.300; 1541.800;12256.400; 1.37918
1381.82; 1925.500; 1495.800;11839.800; 1.38152
1385.80; 1974.900; 1542.900;11856.600; 1.37793
1389.77; 1954.300; 1524.900;11869.500; 1.38185
1393.74; 1941.600; 1509.900;11804.200; 1.37741
1397.70; 1988.500; 1552.300;11918.000; 1.37591
1401.66; 1962.500; 1522.100;11986.800; 1.37588
1405.62; 1943.100; 1502.000;12055.500; 1.37886
1409.58; 1973.700; 1528.700;12203.600; 1.38000
1413.54; 1974.800; 1519.400;12293.200; 1.37398
1417.49; 1934.400; 1476.800;12292.900; 1.37358
1421.44; 1983.600; 1523.100;12384.600; 1.37266
1425.39; 1971.000; 1510.500;12382.800; 1.37309
1429.33; 1990.600; 1525.700;12395.900; 1.36888
1433.27; 1985.100; 1523.700;12370.200; 1.37121
1437.21; 1959.500; 1502.800;12323.500; 1.37462
1441.15; 2005.700; 1543.700;12339.600; 1.36862
1445.09; 1991.800; 1531.000;12292.800; 1.36837
1449.02; 1937.500; 1489.700;12200.500; 1.37874
1452.95; 1990.400; 1529.700;12230.100; 1.36598
1456.87; 1985.300; 1524.100;12175.900; 1.36353
1460.80; 1968.800; 1510.600;12112.200; 1.36432
1464.72; 1951.900; 1502.500;12023.800; 1.36944
1468.64; 1951.800; 1502.300;11961.600; 1.36677
1472.55; 1963.100; 1518.100;11913.700; 1.36849
1476.47; 1976.800; 1531.300;11884.300; 1.36622
1480.38; 1961.900; 1517.300;11801.000; 1.36418
1484.28; 1975.600; 1535.000;11762.600; 1.36573
1488.19; 1961.800; 1522.200;11690.100; 1.36417
1492.09; 1922.500; 1489.900;11596.700; 1.36853
1495.99; 1940.200; 1506.600;11539.600; 1.36434
1499.89; 1946.500; 1513.300;11504.200; 1.36292
1503.78; 1945.700; 1515.200;11427.600; 1.36221
1507.67; 1964.700; 1539.800;11381.400; 1.36478
1511.56; 1919.600; 1498.300;11268.800; 1.36533
1515.44; 1951.400; 1525.700;11237.600; 1.35820
1519.33; 1928.500; 1515.200;11135.600; 1.36693
1523.21; 1943.500; 1523.900;11078.700; 1.35739
1527.08; 1930.100; 1519.400;10990.300; 1.36287
1530.96; 1914.700; 1500.300;10886.000; 1.35505
1534.83; 1954.400; 1544.300;10845.200; 1.35564
1538.70; 1912.100; 1508.600;10715.900; 1.35829
1542.56; 1895.300; 1500.900;10619.900; 1.36401
1546.42; 1913.500; 1517.300;10554.500; 1.35812
1550.28; 1903.900; 1513.400;10453.100; 1.35970
1554.14; 1901.300; 1508.800;10345.500; 1.35245
1557.99; 1911.700; 1525.700;10266.900; 1.35498
1561.84; 1872.900; 1498.400;10122.900; 1.36228
1565.69; 1891.300; 1516.200;10052.800; 1.35714
1569.54; 1879.100; 1503.300; 9933.900; 1.35090
1573.38; 1872.400; 1501.700; 9824.400; 1.35124
1577.22; 1896.200; 1527.000; 9752.100; 1.34788
1581.05; 1874.400; 1512.400; 9625.200; 1.35046
1584.89; 1882.100; 1524.900; 9522.100; 1.35003
1588.72; 1875.000; 1517.700; 9409.100; 1.34412
1592.54; 1850.900; 1506.200; 9274.600; 1.35289
1596.37; 1866.100; 1517.200; 9177.600; 1.34155
1600.19; 1849.500; 1510.100; 9050.400; 1.34668
1604.01; 1824.000; 1486.400; 8899.400; 1.34159
1607.82; 1834.500; 1509.800; 8796.900; 1.35107
1611.63; 1803.700; 1480.100; 8624.900; 1.34398
1615.44; 1879.200; 1553.300; 8575.400; 1.33338
1619.25; 1795.500; 1486.200; 8361.300; 1.34690
1623.05; 1782.800; 1479.000; 8208.600; 1.34540
1626.85; 1812.600; 1513.000; 8103.300; 1.34236
1630.64; 1827.700; 1524.000; 7969.700; 1.32683
1634.44; 1794.600; 1504.600; 7800.200; 1.33664
1638.23; 1793.400; 1503.300; 7652.600; 1.32628
1642.01; 1783.400; 1506.800; 7500.000; 1.33581
1645.80; 1773.000; 1499.800; 7336.400; 1.32968
1649.58; 1772.200; 1507.600; 7165.100; 1.33003
1653.35; 1819.000; 1554.000; 7043.000; 1.31625
1657.13; 1737.300; 1486.500; 6816.300; 1.32738
1660.90; 1749.100; 1500.200; 6658.700; 1.31650
1664.67; 1725.900; 1492.900; 6464.500; 1.32914
1668.43; 1735.500; 1506.200; 6271.300; 1.31767
1672.19; 1748.400; 1522.100; 6011.600; 1.29751
1675.95; 1699.500; 1493.800; 5613.400; 1.30162
1679.70; 1725.400; 1530.900; 5235.900; 1.27987
1683.46; 1671.700; 1497.800; 4742.900; 1.27093
1687.20; 1666.900; 1511.400; 4295.600; 1.25297
1690.95; 1649.800; 1504.400; 3867.300; 1.21088
1694.69; 1643.200; 1514.400; 3526.700; 1.19378
1698.43; 1594.000; 1482.500; 3185.600; 1.18397
1702.16; 1605.000; 1497.600; 2968.200; 1.13649
1705.89; 1600.700; 1499.300; 2779.100; 1.10110
1709.62; 1578.800; 1493.100; 2618.100; 1.11817
1713.35; 1612.600; 1522.600; 2525.400; 1.04697
1717.07; 1571.800; 1492.000; 2393.400; 1.05291
1720.79; 1594.400; 1513.300; 2338.300; 1.00743
1724.50; 1594.700; 1514.000; 2272.300; 0.97297
1728.21; 1571.200; 1499.400; 2201.400; 0.99021
1731.92; 1564.200; 1495.900; 2152.500; 0.98288
1735.63; 1559.600; 1483.800; 2109.800; 0.91691
1739.33; 1593.900; 1525.100; 2113.700; 0.93223
1743.02; 1565.900; 1493.200; 2053.800; 0.88712
1746.72; 1563.100; 1494.300; 2031.700; 0.89271
1750.41; 1576.000; 1502.900; 2014.600; 0.84510
1754.10; 1583.700; 1515.500; 2011.500; 0.86170

