
Integration time [ms]:   3.780
Averaging Nr. [scans]: 1
Smoothing Nr. [pixels]: 0
Data measured with spectrometer [name]: 1911294U1
Wave   ;Sample   ;Dark     ;Reference;Absorbance
[nm]   ;[counts] ;[counts] ;[counts] ;[A.U]

 860.61;  132.750;   67.750;  833.250; 1.07103
 864.82;  127.750;   49.750;  998.250; 1.08494
 869.02;  147.750;   59.750; 1169.250; 1.10064
 873.23;  156.750;   54.750; 1288.250; 1.08254
 877.43;  158.750;   53.750; 1415.250; 1.11283
 881.63;  177.750;   54.750; 1540.250; 1.08197
 885.83;  177.750;   49.750; 1684.250; 1.10617
 890.03;  171.750;   28.750; 1796.250; 1.09202
 894.23;  205.750;   40.750; 1929.250; 1.05863
 898.42;  200.750;   37.750; 2071.250; 1.09606
 902.62;  218.750;   56.750; 2213.250; 1.12423
 906.81;  214.750;   35.750; 2337.250; 1.10916
 911.00;  237.750;   53.750; 2523.250; 1.12779
 915.19;  246.750;   45.750; 2712.250; 1.12275
 919.38;  269.750;   47.750; 2963.250; 1.11836
 923.57;  302.750;   53.750; 3292.250; 1.11414
 927.76;  320.750;   40.750; 3728.250; 1.11957
 931.94;  350.750;   39.750; 4163.250; 1.12251
 936.13;  382.750;   53.750; 4579.250; 1.13847
 940.31;  402.750;   50.750; 4873.250; 1.13673
 944.49;  426.750;   63.750; 5167.250; 1.14796
 948.67;  431.750;   49.750; 5411.250; 1.14722
 952.85;  446.750;   50.750; 5679.250; 1.15270
 957.03;  444.750;   47.750; 5965.250; 1.17335
 961.21;  488.750;   58.750; 6236.250; 1.15734
 965.38;  486.750;   44.750; 6471.250; 1.16255
 969.55;  487.750;   37.750; 6719.250; 1.17166
 973.73;  520.750;   56.750; 6971.250; 1.17324
 977.90;  527.750;   42.750; 7222.250; 1.17035
 982.06;  571.750;   44.750; 7469.250; 1.14886
 986.23;  570.750;   51.750; 7739.250; 1.17062
 990.40;  591.750;   61.750; 7985.250; 1.17464
 994.56;  611.750;   65.750; 8243.250; 1.17543
 998.72;  617.750;   58.750; 8450.250; 1.17643
1002.88;  635.750;   57.750; 8670.250; 1.17320
1007.04;  646.750;   52.750; 8879.250; 1.17200
1011.20;  669.750;   49.750; 9068.250; 1.16274
1015.36;  669.750;   45.750; 9257.250; 1.16915
1019.51;  696.750;   60.750; 9402.250; 1.16696
1023.67;  701.750;   69.750; 9574.250; 1.17721
1027.82;  726.750;   61.750; 9729.250; 1.16249
1031.97;  716.750;   55.750; 9851.250; 1.17083
1036.12;  738.750;   49.750;10022.250; 1.16058
1040.27;  751.750;   61.750;10174.250; 1.16601
1044.41;  770.750;   73.750;10320.250; 1.16734
1048.56;  772.750;   53.750;10468.250; 1.16091
1052.70;  773.750;   58.750;10629.250; 1.16979
1056.84;  798.750;   47.750;10798.250; 1.15579
1060.98;  805.750;   67.750;10996.250; 1.17050
1065.11;  822.750;   63.750;11181.250; 1.16577
1069.25;  823.750;   63.750;11391.250; 1.17332
1073.38;  834.750;   56.750;11632.250; 1.17256
1077.52;  856.750;   70.750;11862.250; 1.17615
1081.65;  870.750;   62.750;12105.250; 1.17331
1085.77;  898.750;   60.750;12352.250; 1.16636
1089.90;  917.750;   56.750;12603.250; 1.16352
1094.03;  930.750;   65.750;12857.250; 1.16991
1098.15;  943.750;   68.750;13146.250; 1.17452
1102.27;  958.750;   66.750;13436.250; 1.17575
1106.39;  984.750;   69.750;13733.250; 1.17414
1110.51; 1004.750;   69.750;14055.250; 1.17487
1114.63; 1010.750;   49.750;14464.250; 1.17608
1118.74; 1049.750;   73.750;14874.250; 1.18083
1122.85; 1054.750;   70.750;15167.250; 1.18588
1126.96; 1053.750;   61.750;15350.250; 1.18785
1131.07; 1059.750;   57.750;15457.250; 1.18664
1135.18; 1032.750;   63.750;15545.250; 1.20349
1139.29; 1020.750;   45.750;15604.250; 1.20296
1143.39; 1012.750;   62.750;15613.250; 1.21402
1147.49;  974.750;   71.750;15592.250; 1.23522
1151.59;  963.750;   71.750;15618.250; 1.24127
1155.69;  949.750;   64.750;15618.250; 1.24488
1159.78;  947.750;   61.750;15619.250; 1.24451
1163.88;  945.750;   66.750;15654.250; 1.24879
1167.97;  928.750;   60.750;15657.250; 1.25451
1172.06;  915.750;   60.750;15668.250; 1.26137
1176.15;  902.750;   53.750;15670.250; 1.26468
1180.23;  907.750;   59.750;15679.250; 1.26527
1184.32;  902.750;   50.750;15690.250; 1.26378
1188.40;  891.750;   57.750;15712.250; 1.27347
1192.48;  913.750;   55.750;15725.250; 1.26157
1196.56;  908.750;   53.750;15754.250; 1.26395
1200.64;  917.750;   72.750;15783.250; 1.26933
1204.71;  910.750;   50.750;15806.250; 1.26293
1208.78;  935.750;   69.750;15849.250; 1.26058
1212.85;  912.750;   54.750;15854.250; 1.26516
1216.92;  917.750;   37.750;15840.250; 1.25424
1220.99;  940.750;   49.750;15897.250; 1.25008
1225.05;  940.750;   60.750;15920.250; 1.25581
1229.11;  931.750;   53.750;15924.250; 1.25710
1233.17;  937.750;   58.750;15926.250; 1.25652
1237.23;  936.750;   49.750;15943.250; 1.25330
1241.29;  953.750;   51.750;15960.250; 1.24642
1245.34;  955.750;   79.750;16029.250; 1.26024
1249.39;  943.750;   55.750;16081.250; 1.25640
1253.44;  960.750;   36.750;16122.250; 1.24076
1257.49;  975.750;   73.750;16225.250; 1.25301
1261.53;  982.750;   40.750;16273.250; 1.23633
1265.58;  981.750;   46.750;16338.250; 1.24115
1269.62;  977.750;   46.750;16412.250; 1.24498
1273.65;  991.750;   55.750;16472.250; 1.24400
1277.69;  983.750;   53.750;16552.250; 1.24896
1281.72;  992.750;   65.750;16612.250; 1.25163
1285.76;  980.750;   66.750;16662.250; 1.25904
1289.79;  996.750;   56.750;16697.250; 1.24804
1293.81;  977.750;   44.750;16713.250; 1.25201
1297.84;  969.750;   49.750;16765.250; 1.25933
1301.86;  971.750;   43.750;16807.250; 1.25682
1305.88;  969.750;   58.750;16824.250; 1.26490
1309.90;  961.750;   49.750;16842.250; 1.26512
1313.92;  926.750;   55.750;16828.250; 1.28458
1317.93;  924.750;   65.750;16838.250; 1.29060
1321.94;  907.750;   46.750;16825.250; 1.28975
1325.95;  886.750;   64.750;16797.250; 1.30869
1329.96;  880.750;   63.750;16802.250; 1.31149
1333.96;  836.750;   52.750;16773.250; 1.32893
1337.96;  825.750;   63.750;16776.250; 1.34109
1341.96;  819.750;   46.750;16748.250; 1.33458
1345.96;  798.750;   59.750;16622.250; 1.35048
1349.95;  743.750;   42.750;16410.250; 1.36826
1353.95;  727.750;   67.750;16154.250; 1.38692
1357.94;  704.750;   50.750;15843.250; 1.38287
1361.92;  679.750;   50.750;15571.250; 1.39226
1365.91;  628.750;   46.750;15308.250; 1.41867
1369.89;  603.750;   50.750;15042.250; 1.43312
1373.87;  545.750;   48.750;14460.250; 1.46235
1377.85;  509.750;   60.750;13607.250; 1.47958
1381.82;  439.750;   48.750;12795.250; 1.51321
1385.80;  391.750;   50.750;12441.250; 1.56033
1389.77;  337.750;   54.750;12376.250; 1.63888
1393.74;  302.750;   63.750;12523.250; 1.71710
1397.70;  266.750;   57.750;12861.250; 1.78718
1401.66;  223.750;   57.750;13177.250; 1.89781
1405.62;  187.750;   34.750;13448.250; 1.94285
1409.58;  184.750;   50.750;13653.250; 2.00651
1413.54;  150.750;   50.750;13787.250; 2.13788
1417.49;  150.750;   27.750;13838.250; 2.05030
1421.44;  145.750;   63.750;13894.250; 2.22702
1425.39;  149.750;   54.750;13879.250; 2.16293
1429.33;  137.750;   64.750;13864.250; 2.27654
1433.27;  132.750;   54.750;13809.250; 2.24635
1437.21;  120.750;   48.750;13776.250; 2.28026
1441.15;  130.750;   52.750;13748.250; 2.24448
1445.09;  128.750;   60.750;13691.250; 2.30200
1449.02;  130.750;   57.750;13611.250; 2.26873
1452.95;  109.750;   52.750;13536.250; 2.37393
1456.87;  121.750;   53.750;13439.250; 2.29413
1460.80;  116.750;   43.750;13345.250; 2.26058
1464.72;  131.750;   59.750;13253.250; 2.26303
1468.64;  114.750;   43.750;13131.250; 2.26560
1472.55;  124.750;   63.750;13051.250; 2.32820
1476.47;  114.750;   43.750;12969.250; 2.26019
1480.38;  135.750;   38.750;12870.250; 2.12151
1484.28;  127.750;   54.750;12750.250; 2.24033
1488.19;  124.750;   50.750;12663.250; 2.23157
1492.09;  119.750;   28.750;12533.250; 2.13802
1495.99;  140.750;   58.750;12434.250; 2.17875
1499.89;  151.750;   46.750;12320.250; 2.06778
1503.78;  139.750;   48.750;12228.250; 2.12659
1507.67;  163.750;   52.750;12113.250; 2.03604
1511.56;  161.750;   33.750;11982.250; 1.97010
1515.44;  169.750;   50.750;11884.250; 1.99757
1519.33;  175.750;   48.750;11757.250; 1.96470
1523.21;  175.750;   35.750;11649.250; 1.91884
1527.08;  185.750;   57.750;11506.250; 1.95154
1530.96;  170.750;   39.750;11368.250; 1.93690
1534.83;  200.750;   52.750;11249.250; 1.87882
1538.70;  189.750;   57.750;11082.250; 1.92178
1542.56;  191.750;   28.750;10958.250; 1.82641
1546.42;  208.750;   39.750;10836.250; 1.80540
1550.28;  212.750;   58.750;10683.250; 1.83879
1554.14;  201.750;   39.750;10510.250; 1.81045
1557.99;  218.750;   41.750;10388.250; 1.76682
1561.84;  195.750;   33.750;10234.250; 1.79911
1565.69;  219.750;   40.750;10095.250; 1.74951
1569.54;  209.750;   24.750; 9939.250; 1.72910
1573.38;  208.750;   40.750; 9804.250; 1.76430
1577.22;  218.750;   31.750; 9649.250; 1.71122
1581.05;  221.750;   49.750; 9522.250; 1.74094
1584.89;  225.750;   45.750; 9369.250; 1.71431
1588.72;  230.750;   41.750; 9215.250; 1.68607
1592.54;  217.750;   35.750; 9061.250; 1.69540
1596.37;  216.750;   22.750; 8908.250; 1.66088
1600.19;  240.750;   43.750; 8774.250; 1.64657
1604.01;  222.750;   33.750; 8610.250; 1.65685
1607.82;  212.750;   31.750; 8473.250; 1.66874
1611.63;  210.750;   22.750; 8316.250; 1.64458
1615.44;  227.750;   26.750; 8167.250; 1.60746
1619.25;  229.750;   34.750; 7998.250; 1.61107
1623.05;  210.750;   13.750; 7822.250; 1.59810
1626.85;  227.750;   26.750; 7668.250; 1.57998
1630.64;  238.750;   42.750; 7511.250; 1.58098
1634.44;  219.750;   26.750; 7307.250; 1.57660
1638.23;  196.750;   18.750; 7114.250; 1.60056
1642.01;  216.750;   39.750; 6938.250; 1.59078
1645.80;  217.750;   42.750; 6743.250; 1.58307
1649.58;  212.750;   38.750; 6531.250; 1.57186
1653.35;  213.750;   44.750; 6309.250; 1.56900
1657.13;  193.750;   36.750; 6064.250; 1.58424
1660.90;  183.750;   34.750; 5808.250; 1.58825
1664.67;  182.750;   28.750; 5491.250; 1.54987
1668.43;  167.750;   24.750; 5119.250; 1.55177
1672.19;  166.750;   35.750; 4656.250; 1.54742
1675.95;  142.750;   31.750; 4113.250; 1.56550
1679.70;  135.750;   46.750; 3563.250; 1.59672
1683.46;  128.750;   23.750; 3047.250; 1.45932
1687.20;  129.750;   39.750; 2617.250; 1.45696
1690.95;  102.750;   36.750; 2243.250; 1.52416
1694.69;  116.750;   56.750; 1964.250; 1.50231
1698.43;  103.750;   22.750; 1699.250; 1.31592
1702.16;  103.750;   44.750; 1533.250; 1.40190
1705.89;   98.750;   30.750; 1372.250; 1.29508
1709.62;   86.750;   25.750; 1277.250; 1.31210
1713.35;   85.750;   17.750; 1187.250; 1.23549
1717.07;   95.750;   42.750; 1123.250; 1.30935
1720.79;   81.750;   41.750; 1064.250; 1.40760
1724.50;  100.750;   44.750; 1019.250; 1.24059
1728.21;   88.750;   29.750;  974.250; 1.20435
1731.92;   94.750;   25.750;  931.250; 1.11804
1735.63;   95.750;   34.750;  925.250; 1.16430
1739.33;   98.750;   23.750;  909.250; 1.07213
1743.02;   85.750;   21.750;  865.250; 1.11991
1746.72;   97.750;   33.750;  872.250; 1.11732
1750.41;  100.750;   37.750;  865.250; 1.11843
1754.10;  103.750;   44.750;  846.250; 1.13305

