
Integration time [ms]:  10.000
Averaging Nr. [scans]: 10
Smoothing Nr. [pixels]: 0
Data measured with spectrometer [name]: 1911294U1
Wave   ;Sample   ;Dark     ;Reference;Absorbance
[nm]   ;[counts] ;[counts] ;[counts] ;[A.U]

 860.61; 1624.500; 1551.700; 1907.800; 0.68944
 864.82; 1571.600; 1505.600; 1955.500; 0.83357
 869.02; 1588.400; 1514.900; 2034.000; 0.84896
 873.23; 1611.100; 1530.300; 2122.800; 0.86528
 877.43; 1568.800; 1494.800; 2149.500; 0.94681
 881.63; 1613.600; 1530.800; 2256.000; 0.94243
 885.83; 1589.100; 1499.600; 2300.600; 0.95181
 890.03; 1590.200; 1501.000; 2363.200; 0.98524
 894.23; 1591.600; 1498.400; 2434.200; 1.00177
 898.42; 1580.100; 1490.200; 2489.500; 1.04594
 902.62; 1624.300; 1522.400; 2605.100; 1.02633
 906.81; 1584.700; 1488.700; 2644.500; 1.08061
 911.00; 1601.500; 1494.400; 2732.000; 1.06279
 915.19; 1607.300; 1503.000; 2840.700; 1.10807
 919.38; 1655.600; 1541.400; 2988.000; 1.10268
 923.57; 1592.200; 1477.600; 3060.100; 1.14016
 927.76; 1640.800; 1511.200; 3297.300; 1.13930
 931.94; 1632.100; 1493.300; 3511.600; 1.16260
 936.13; 1664.700; 1516.000; 3764.700; 1.17962
 940.31; 1633.000; 1484.900; 3931.100; 1.21794
 944.49; 1708.000; 1547.000; 4163.000; 1.21081
 948.67; 1695.900; 1518.900; 4297.000; 1.19577
 952.85; 1669.300; 1493.400; 4427.000; 1.22214
 957.03; 1683.600; 1501.100; 4604.000; 1.23050
 961.21; 1706.700; 1518.200; 4778.500; 1.23795
 965.38; 1702.000; 1507.600; 4921.400; 1.24454
 969.55; 1699.200; 1505.800; 5072.200; 1.26577
 973.73; 1727.000; 1520.500; 5253.800; 1.25717
 977.90; 1717.800; 1511.100; 5413.200; 1.27596
 982.06; 1732.200; 1518.800; 5592.700; 1.28082
 986.23; 1733.200; 1506.000; 5748.000; 1.27116
 990.40; 1753.200; 1519.400; 5941.100; 1.27674
 994.56; 1777.500; 1538.400; 6129.700; 1.28336
 998.72; 1784.700; 1541.900; 6290.500; 1.29132
1002.88; 1761.600; 1510.200; 6415.300; 1.29028
1007.04; 1782.000; 1529.400; 6579.000; 1.30082
1011.20; 1781.300; 1519.900; 6717.500; 1.29850
1015.36; 1812.300; 1543.200; 6867.300; 1.29633
1019.51; 1777.100; 1510.000; 6947.400; 1.30872
1023.67; 1794.700; 1530.900; 7080.200; 1.32296
1027.82; 1790.900; 1512.800; 7172.800; 1.30862
1031.97; 1808.800; 1525.500; 7291.600; 1.30864
1036.12; 1805.700; 1523.900; 7384.200; 1.31798
1040.27; 1809.400; 1520.100; 7490.500; 1.31465
1044.41; 1812.700; 1522.700; 7585.300; 1.32026
1048.56; 1828.400; 1534.900; 7704.000; 1.32261
1052.70; 1818.400; 1519.500; 7789.500; 1.32174
1056.84; 1833.100; 1529.400; 7905.400; 1.32210
1060.98; 1805.000; 1501.100; 7985.000; 1.32911
1065.11; 1828.300; 1513.900; 8119.500; 1.32243
1069.25; 1843.600; 1526.700; 8264.000; 1.32756
1073.38; 1858.000; 1527.800; 8408.100; 1.31883
1077.52; 1878.600; 1546.500; 8548.800; 1.32397
1081.65; 1867.800; 1532.900; 8683.900; 1.32945
1085.77; 1868.700; 1527.000; 8829.600; 1.32983
1089.90; 1881.900; 1533.700; 8986.900; 1.33051
1094.03; 1851.400; 1500.400; 9113.600; 1.33626
1098.15; 1903.900; 1546.400; 9322.700; 1.33750
1102.27; 1851.000; 1489.800; 9441.600; 1.34272
1106.39; 1902.700; 1527.600; 9661.400; 1.33615
1110.51; 1930.500; 1551.400; 9878.200; 1.34172
1114.63; 1889.200; 1500.800;10067.700; 1.34354
1118.74; 1956.400; 1553.000;10360.700; 1.33913
1122.85; 1935.700; 1530.700;10522.800; 1.34641
1126.96; 1918.200; 1503.600;10642.400; 1.34326
1131.07; 1971.100; 1554.700;10786.500; 1.34578
1135.18; 1921.700; 1504.600;10802.100; 1.34813
1139.29; 1938.900; 1516.000;10868.600; 1.34469
1143.39; 1964.400; 1538.200;10912.400; 1.34232
1147.49; 1938.800; 1518.500;10897.900; 1.34862
1151.59; 1940.000; 1515.000;10914.000; 1.34469
1155.69; 1966.900; 1541.600;10966.800; 1.34560
1159.78; 1926.100; 1502.700;10951.200; 1.34861
1163.88; 1965.200; 1536.300;11019.900; 1.34462
1167.97; 1965.100; 1537.000;11049.100; 1.34673
1172.06; 1945.600; 1514.600;11052.300; 1.34497
1176.15; 1942.300; 1511.400;11073.900; 1.34619
1180.23; 1982.100; 1549.600;11155.900; 1.34657
1184.32; 1926.800; 1494.700;11140.100; 1.34874
1188.40; 1948.400; 1514.000;11201.700; 1.34833
1192.48; 1956.900; 1515.300;11260.500; 1.34376
1196.56; 1960.100; 1521.200;11309.800; 1.34835
1200.64; 1981.800; 1534.600;11380.300; 1.34274
1204.71; 1963.000; 1514.200;11415.100; 1.34362
1208.78; 1969.300; 1522.400;11476.100; 1.34777
1212.85; 1996.200; 1547.900;11559.600; 1.34894
1216.92; 1920.800; 1476.200;11533.500; 1.35451
1220.99; 1987.300; 1534.300;11668.800; 1.34970
1225.05; 1978.600; 1527.500;11719.100; 1.35397
1229.11; 1959.700; 1506.200;11777.200; 1.35504
1233.17; 2001.700; 1537.300;11867.500; 1.34722
1237.23; 1994.900; 1535.100;11935.000; 1.35446
1241.29; 1995.900; 1531.200;11992.800; 1.35243
1245.34; 2029.100; 1560.000;12107.000; 1.35186
1249.39; 1969.700; 1500.000;12117.900; 1.35422
1253.44; 1988.600; 1518.900;12212.500; 1.35730
1257.49; 2031.000; 1552.800;12334.500; 1.35308
1261.53; 1997.300; 1518.900;12369.900; 1.35568
1265.58; 2008.500; 1525.900;12452.600; 1.35490
1269.62; 2008.000; 1519.600;12529.800; 1.35302
1273.65; 2016.000; 1519.900;12603.400; 1.34911
1277.69; 2006.700; 1518.000;12681.800; 1.35877
1281.72; 2029.800; 1530.100;12773.400; 1.35218
1285.76; 2028.300; 1529.900;12851.500; 1.35633
1289.79; 2023.000; 1520.800;12909.400; 1.35559
1293.81; 2015.900; 1511.100;12974.600; 1.35620
1297.84; 1993.400; 1490.200;13004.900; 1.35951
1301.86; 2057.400; 1546.100;13137.300; 1.35545
1305.88; 2030.800; 1520.800;13163.800; 1.35849
1309.90; 2055.000; 1541.300;13243.300; 1.35755
1313.92; 2006.600; 1497.800;13236.900; 1.36309
1317.93; 2044.500; 1527.400;13321.700; 1.35810
1321.94; 2037.200; 1516.400;13349.300; 1.35642
1325.95; 2036.900; 1515.800;13392.300; 1.35777
1329.96; 2055.000; 1527.200;13449.200; 1.35388
1333.96; 2054.800; 1523.500;13501.700; 1.35305
1337.96; 2056.400; 1525.700;13575.100; 1.35612
1341.96; 2063.900; 1530.100;13604.900; 1.35450
1345.96; 2036.300; 1514.800;13535.100; 1.36266
1349.95; 2017.200; 1504.900;13357.000; 1.36427
1353.95; 2005.700; 1500.800;13080.300; 1.36048
1357.94; 2007.600; 1519.000;12810.900; 1.36381
1361.92; 2004.100; 1525.200;12577.700; 1.36322
1365.91; 1981.200; 1509.100;12495.800; 1.36683
1369.89; 1976.400; 1500.900;12522.200; 1.36508
1373.87; 1961.100; 1483.400;12502.700; 1.36300
1377.85; 2012.700; 1541.800;12256.400; 1.35705
1381.82; 1944.500; 1495.800;11839.800; 1.36273
1385.80; 1998.300; 1542.900;11856.600; 1.35502
1389.77; 1980.600; 1524.900;11869.500; 1.35603
1393.74; 1956.100; 1509.900;11804.200; 1.36307
1397.70; 2008.000; 1552.300;11918.000; 1.35692
1401.66; 1988.600; 1522.100;11986.800; 1.35088
1405.62; 1966.700; 1502.000;12055.500; 1.35622
1409.58; 1996.200; 1528.700;12203.600; 1.35858
1413.54; 1995.700; 1519.400;12293.200; 1.35449
1417.49; 1952.700; 1476.800;12292.900; 1.35655
1421.44; 2008.200; 1523.100;12384.600; 1.35006
1425.39; 1990.300; 1510.500;12382.800; 1.35526
1429.33; 2008.300; 1525.700;12395.900; 1.35265
1433.27; 1999.300; 1523.700;12370.200; 1.35805
1437.21; 1978.800; 1502.800;12323.500; 1.35665
1441.15; 2028.000; 1543.700;12339.600; 1.34814
1445.09; 2007.700; 1531.000;12292.800; 1.35364
1449.02; 1960.500; 1489.700;12200.500; 1.35699
1452.95; 2008.900; 1529.700;12230.100; 1.34888
1456.87; 2002.400; 1524.100;12175.900; 1.34772
1460.80; 1985.800; 1510.600;12112.200; 1.34849
1464.72; 1972.500; 1502.500;12023.800; 1.34997
1468.64; 1968.300; 1502.300;11961.600; 1.35112
1472.55; 1980.200; 1518.100;11913.700; 1.35211
1476.47; 1993.900; 1531.300;11884.300; 1.34986
1480.38; 1987.800; 1517.300;11801.000; 1.33959
1484.28; 1988.500; 1535.000;11762.600; 1.35320
1488.19; 1976.400; 1522.200;11690.100; 1.34998
1492.09; 1942.600; 1489.900;11596.700; 1.34880
1495.99; 1957.000; 1506.600;11539.600; 1.34783
1499.89; 1966.700; 1513.300;11504.200; 1.34312
1503.78; 1963.600; 1515.200;11427.600; 1.34451
1507.67; 1985.800; 1539.800;11381.400; 1.34373
1511.56; 1938.000; 1498.300;11268.800; 1.34676
1515.44; 1968.000; 1525.700;11237.600; 1.34159
1519.33; 1947.700; 1515.200;11135.600; 1.34721
1523.21; 1961.300; 1523.900;11078.700; 1.33934
1527.08; 1945.300; 1519.400;10990.300; 1.34708
1530.96; 1928.200; 1500.300;10886.000; 1.34112
1534.83; 1969.300; 1544.300;10845.200; 1.34014
1538.70; 1930.100; 1508.600;10715.900; 1.33933
1542.56; 1904.300; 1500.900;10619.900; 1.35421
1546.42; 1928.900; 1517.300;10554.500; 1.34156
1550.28; 1916.000; 1513.400;10453.100; 1.34645
1554.14; 1909.100; 1508.800;10345.500; 1.34390
1557.99; 1927.600; 1525.700;10266.900; 1.33745
1561.84; 1891.600; 1498.400;10122.900; 1.34112
1565.69; 1908.300; 1516.200;10052.800; 1.33789
1569.54; 1893.100; 1503.300; 9933.900; 1.33502
1573.38; 1886.900; 1501.700; 9824.400; 1.33458
1577.22; 1912.200; 1527.000; 9752.100; 1.32945
1581.05; 1888.500; 1512.400; 9625.200; 1.33387
1584.89; 1895.100; 1524.900; 9522.100; 1.33450
1588.72; 1893.000; 1517.700; 9409.100; 1.32278
1592.54; 1863.200; 1506.200; 9274.600; 1.33766
1596.37; 1883.900; 1517.200; 9177.600; 1.31994
1600.19; 1865.800; 1510.100; 9050.400; 1.32630
1604.01; 1833.900; 1486.400; 8899.400; 1.32904
1607.82; 1848.100; 1509.800; 8796.900; 1.33325
1611.63; 1818.300; 1480.100; 8624.900; 1.32482
1615.44; 1887.500; 1553.300; 8575.400; 1.32246
1619.25; 1812.200; 1486.200; 8361.300; 1.32406
1623.05; 1803.200; 1479.000; 8208.600; 1.31718
1626.85; 1832.700; 1513.000; 8103.300; 1.31416
1630.64; 1839.800; 1524.000; 7969.700; 1.30986
1634.44; 1806.900; 1504.600; 7800.200; 1.31860
1638.23; 1809.200; 1503.300; 7652.600; 1.30325
1642.01; 1798.900; 1506.800; 7500.000; 1.31213
1645.80; 1790.400; 1499.800; 7336.400; 1.30286
1649.58; 1788.200; 1507.600; 7165.100; 1.30454
1653.35; 1830.900; 1554.000; 7043.000; 1.29717
1657.13; 1755.100; 1486.500; 6816.300; 1.29760
1660.90; 1760.100; 1500.200; 6658.700; 1.29772
1664.67; 1741.200; 1492.900; 6464.500; 1.30152
1668.43; 1749.200; 1506.200; 6271.300; 1.29247
1672.19; 1755.600; 1522.100; 6011.600; 1.28391
1675.95; 1714.900; 1493.800; 5613.400; 1.27027
1679.70; 1741.000; 1530.900; 5235.900; 1.24636
1683.46; 1681.600; 1497.800; 4742.900; 1.24688
1687.20; 1677.700; 1511.400; 4295.600; 1.22381
1690.95; 1654.000; 1504.400; 3867.300; 1.19851
1694.69; 1649.300; 1514.400; 3526.700; 1.17368
1698.43; 1605.400; 1482.500; 3185.600; 1.14169
1702.16; 1609.900; 1497.600; 2968.200; 1.11711
1705.89; 1607.900; 1499.300; 2779.100; 1.07131
1709.62; 1591.200; 1493.100; 2618.100; 1.05948
1713.35; 1619.200; 1522.600; 2525.400; 1.01624
1717.07; 1578.100; 1492.000; 2393.400; 1.01991
1720.79; 1600.700; 1513.300; 2338.300; 0.97494
1724.50; 1604.900; 1514.000; 2272.300; 0.92128
1728.21; 1578.500; 1499.400; 2201.400; 0.94816
1731.92; 1575.000; 1495.900; 2152.500; 0.91912
1735.63; 1562.800; 1483.800; 2109.800; 0.89895
1739.33; 1604.900; 1525.100; 2113.700; 0.86782
1743.02; 1574.700; 1493.200; 2053.800; 0.83750
1746.72; 1566.900; 1494.300; 2031.700; 0.86936
1750.41; 1574.300; 1502.900; 2014.600; 0.85532
1754.10; 1587.100; 1515.500; 2011.500; 0.84057

