
Integration time [ms]:  10.000
Averaging Nr. [scans]: 10
Smoothing Nr. [pixels]: 0
Data measured with spectrometer [name]: 1911294U1
Wave   ;Sample   ;Dark     ;Reference;Absorbance
[nm]   ;[counts] ;[counts] ;[counts] ;[A.U]

 860.61; 1630.600; 1551.700; 1907.800; 0.65449
 864.82; 1586.600; 1505.600; 1955.500; 0.74463
 869.02; 1592.000; 1514.900; 2034.000; 0.82820
 873.23; 1616.700; 1530.300; 2122.800; 0.83617
 877.43; 1575.500; 1494.800; 2149.500; 0.90917
 881.63; 1618.300; 1530.800; 2256.000; 0.91845
 885.83; 1588.100; 1499.600; 2300.600; 0.95669
 890.03; 1592.800; 1501.000; 2363.200; 0.97277
 894.23; 1600.300; 1498.400; 2434.200; 0.96301
 898.42; 1586.000; 1490.200; 2489.500; 1.01833
 902.62; 1626.600; 1522.400; 2605.100; 1.01664
 906.81; 1590.300; 1488.700; 2644.500; 1.05599
 911.00; 1603.300; 1494.400; 2732.000; 1.05555
 915.19; 1614.500; 1503.000; 2840.700; 1.07908
 919.38; 1665.500; 1541.400; 2988.000; 1.06658
 923.57; 1599.200; 1477.600; 3060.100; 1.11441
 927.76; 1641.800; 1511.200; 3297.300; 1.13596
 931.94; 1631.900; 1493.300; 3511.600; 1.16322
 936.13; 1667.700; 1516.000; 3764.700; 1.17095
 940.31; 1635.300; 1484.900; 3931.100; 1.21124
 944.49; 1714.600; 1547.000; 4163.000; 1.19336
 948.67; 1696.700; 1518.900; 4297.000; 1.19382
 952.85; 1668.400; 1493.400; 4427.000; 1.22436
 957.03; 1688.500; 1501.100; 4604.000; 1.21900
 961.21; 1706.500; 1518.200; 4778.500; 1.23841
 965.38; 1708.100; 1507.600; 4921.400; 1.23112
 969.55; 1706.100; 1505.800; 5072.200; 1.25055
 973.73; 1732.100; 1520.500; 5253.800; 1.24658
 977.90; 1726.800; 1511.100; 5413.200; 1.25745
 982.06; 1740.700; 1518.800; 5592.700; 1.26385
 986.23; 1735.000; 1506.000; 5748.000; 1.26774
 990.40; 1756.700; 1519.400; 5941.100; 1.27029
 994.56; 1782.600; 1538.400; 6129.700; 1.27419
 998.72; 1792.600; 1541.900; 6290.500; 1.27741
1002.88; 1763.300; 1510.200; 6415.300; 1.28736
1007.04; 1785.500; 1529.400; 6579.000; 1.29485
1011.20; 1787.200; 1519.900; 6717.500; 1.28880
1015.36; 1809.700; 1543.200; 6867.300; 1.30055
1019.51; 1785.100; 1510.000; 6947.400; 1.29590
1023.67; 1804.800; 1530.900; 7080.200; 1.30665
1027.82; 1800.700; 1512.800; 7172.800; 1.29357
1031.97; 1810.300; 1525.500; 7291.600; 1.30634
1036.12; 1813.500; 1523.900; 7384.200; 1.30612
1040.27; 1812.600; 1520.100; 7490.500; 1.30988
1044.41; 1825.700; 1522.700; 7585.300; 1.30122
1048.56; 1837.700; 1534.900; 7704.000; 1.30907
1052.70; 1823.600; 1519.500; 7789.500; 1.31425
1056.84; 1836.900; 1529.400; 7905.400; 1.31670
1060.98; 1809.400; 1501.100; 7985.000; 1.32286
1065.11; 1830.600; 1513.900; 8119.500; 1.31926
1069.25; 1848.700; 1526.700; 8264.000; 1.32063
1073.38; 1861.200; 1527.800; 8408.100; 1.31464
1077.52; 1881.500; 1546.500; 8548.800; 1.32020
1081.65; 1871.300; 1532.900; 8683.900; 1.32494
1085.77; 1874.500; 1527.000; 8829.600; 1.32252
1089.90; 1883.400; 1533.700; 8986.900; 1.32865
1094.03; 1858.000; 1500.400; 9113.600; 1.32817
1098.15; 1911.500; 1546.400; 9322.700; 1.32836
1102.27; 1853.600; 1489.800; 9441.600; 1.33960
1106.39; 1906.000; 1527.600; 9661.400; 1.33234
1110.51; 1938.000; 1551.400; 9878.200; 1.33322
1114.63; 1898.400; 1500.800;10067.700; 1.33338
1118.74; 1960.200; 1553.000;10360.700; 1.33505
1122.85; 1939.200; 1530.700;10522.800; 1.34267
1126.96; 1922.100; 1503.600;10642.400; 1.33919
1131.07; 1978.900; 1554.700;10786.500; 1.33772
1135.18; 1925.600; 1504.600;10802.100; 1.34408
1139.29; 1945.600; 1516.000;10868.600; 1.33787
1143.39; 1969.400; 1538.200;10912.400; 1.33726
1147.49; 1940.400; 1518.500;10897.900; 1.34697
1151.59; 1945.500; 1515.000;10914.000; 1.33911
1155.69; 1977.800; 1541.600;10966.800; 1.33460
1159.78; 1931.800; 1502.700;10951.200; 1.34280
1163.88; 1970.000; 1536.300;11019.900; 1.33978
1167.97; 1975.300; 1537.000;11049.100; 1.33650
1172.06; 1953.000; 1514.600;11052.300; 1.33757
1176.15; 1942.700; 1511.400;11073.900; 1.34579
1180.23; 1992.500; 1549.600;11155.900; 1.33625
1184.32; 1935.100; 1494.700;11140.100; 1.34047
1188.40; 1959.200; 1514.000;11201.700; 1.33767
1192.48; 1960.200; 1515.300;11260.500; 1.34053
1196.56; 1965.600; 1521.200;11309.800; 1.34295
1200.64; 1986.100; 1534.600;11380.300; 1.33859
1204.71; 1961.200; 1514.200;11415.100; 1.34537
1208.78; 1979.800; 1522.400;11476.100; 1.33769
1212.85; 2003.200; 1547.900;11559.600; 1.34221
1216.92; 1926.300; 1476.200;11533.500; 1.34917
1220.99; 1985.500; 1534.300;11668.800; 1.35143
1225.05; 1985.200; 1527.500;11719.100; 1.34766
1229.11; 1968.300; 1506.200;11777.200; 1.34688
1233.17; 2004.500; 1537.300;11867.500; 1.34461
1237.23; 2005.400; 1535.100;11935.000; 1.34465
1241.29; 2001.500; 1531.200;11992.800; 1.34722
1245.34; 2032.800; 1560.000;12107.000; 1.34845
1249.39; 1971.600; 1500.000;12117.900; 1.35246
1253.44; 1997.300; 1518.900;12212.500; 1.34933
1257.49; 2039.300; 1552.800;12334.500; 1.34560
1261.53; 2006.200; 1518.900;12369.900; 1.34767
1265.58; 2013.700; 1525.900;12452.600; 1.35025
1269.62; 2011.200; 1519.600;12529.800; 1.35018
1273.65; 2020.100; 1519.900;12603.400; 1.34553
1277.69; 2014.100; 1518.000;12681.800; 1.35224
1281.72; 2034.900; 1530.100;12773.400; 1.34777
1285.76; 2034.500; 1529.900;12851.500; 1.35096
1289.79; 2025.500; 1520.800;12909.400; 1.35344
1293.81; 2023.800; 1511.100;12974.600; 1.34945
1297.84; 1998.600; 1490.200;13004.900; 1.35505
1301.86; 2062.500; 1546.100;13137.300; 1.35114
1305.88; 2034.700; 1520.800;13163.800; 1.35519
1309.90; 2062.700; 1541.300;13243.300; 1.35109
1313.92; 2015.600; 1497.800;13236.900; 1.35547
1317.93; 2049.800; 1527.400;13321.700; 1.35367
1321.94; 2039.400; 1516.400;13349.300; 1.35459
1325.95; 2044.200; 1515.800;13392.300; 1.35173
1329.96; 2062.400; 1527.200;13449.200; 1.34783
1333.96; 2061.900; 1523.500;13501.700; 1.34729
1337.96; 2061.800; 1525.700;13575.100; 1.35172
1341.96; 2075.000; 1530.100;13604.900; 1.34556
1345.96; 2049.500; 1514.800;13535.100; 1.35181
1349.95; 2028.600; 1504.900;13357.000; 1.35471
1353.95; 2007.800; 1500.800;13080.300; 1.35868
1357.94; 2016.900; 1519.000;12810.900; 1.35562
1361.92; 2013.300; 1525.200;12577.700; 1.35495
1365.91; 1987.600; 1509.100;12495.800; 1.36099
1369.89; 1983.100; 1500.900;12522.200; 1.35901
1373.87; 1969.000; 1483.400;12502.700; 1.35588
1377.85; 2019.400; 1541.800;12256.400; 1.35091
1381.82; 1951.700; 1495.800;11839.800; 1.35582
1385.80; 2002.900; 1542.900;11856.600; 1.35066
1389.77; 1987.400; 1524.900;11869.500; 1.34960
1393.74; 1966.300; 1509.900;11804.200; 1.35325
1397.70; 2015.900; 1552.300;11918.000; 1.34946
1401.66; 1990.700; 1522.100;11986.800; 1.34892
1405.62; 1968.100; 1502.000;12055.500; 1.35492
1409.58; 2005.700; 1528.700;12203.600; 1.34985
1413.54; 2004.200; 1519.400;12293.200; 1.34681
1417.49; 1960.400; 1476.800;12292.900; 1.34958
1421.44; 2012.900; 1523.100;12384.600; 1.34587
1425.39; 1997.200; 1510.500;12382.800; 1.34906
1429.33; 2016.400; 1525.700;12395.900; 1.34542
1433.27; 2009.400; 1523.700;12370.200; 1.34892
1437.21; 1985.600; 1502.800;12323.500; 1.35049
1441.15; 2033.600; 1543.700;12339.600; 1.34315
1445.09; 2014.800; 1531.000;12292.800; 1.34722
1449.02; 1967.500; 1489.700;12200.500; 1.35058
1452.95; 2010.400; 1529.700;12230.100; 1.34753
1456.87; 2009.400; 1524.100;12175.900; 1.34141
1460.80; 1995.300; 1510.600;12112.200; 1.33990
1464.72; 1973.800; 1502.500;12023.800; 1.34877
1468.64; 1977.200; 1502.300;11961.600; 1.34290
1472.55; 1990.100; 1518.100;11913.700; 1.34291
1476.47; 2003.800; 1531.300;11884.300; 1.34066
1480.38; 1992.200; 1517.300;11801.000; 1.33555
1484.28; 2001.200; 1535.000;11762.600; 1.34120
1488.19; 1984.300; 1522.200;11690.100; 1.34250
1492.09; 1952.800; 1489.900;11596.700; 1.33913
1495.99; 1967.600; 1506.600;11539.600; 1.33773
1499.89; 1971.300; 1513.300;11504.200; 1.33874
1503.78; 1969.900; 1515.200;11427.600; 1.33845
1507.67; 1995.800; 1539.800;11381.400; 1.33410
1511.56; 1948.200; 1498.300;11268.800; 1.33680
1515.44; 1975.600; 1525.700;11237.600; 1.33419
1519.33; 1957.900; 1515.200;11135.600; 1.33708
1523.21; 1967.200; 1523.900;11078.700; 1.33352
1527.08; 1953.000; 1519.400;10990.300; 1.33930
1530.96; 1935.000; 1500.300;10886.000; 1.33428
1534.83; 1982.700; 1544.300;10845.200; 1.32665
1538.70; 1937.600; 1508.600;10715.900; 1.33167
1542.56; 1920.000; 1500.900;10619.900; 1.33763
1546.42; 1938.200; 1517.300;10554.500; 1.33185
1550.28; 1926.400; 1513.400;10453.100; 1.33537
1554.14; 1926.000; 1508.800;10345.500; 1.32595
1557.99; 1936.800; 1525.700;10266.900; 1.32762
1561.84; 1896.800; 1498.400;10122.900; 1.33541
1565.69; 1910.600; 1516.200;10052.800; 1.33535
1569.54; 1898.300; 1503.300; 9933.900; 1.32926
1573.38; 1892.900; 1501.700; 9824.400; 1.32787
1577.22; 1916.400; 1527.000; 9752.100; 1.32475
1581.05; 1896.400; 1512.400; 9625.200; 1.32484
1584.89; 1906.600; 1524.900; 9522.100; 1.32122
1588.72; 1898.700; 1517.700; 9409.100; 1.31623
1592.54; 1874.200; 1506.200; 9274.600; 1.32448
1596.37; 1886.300; 1517.200; 9177.600; 1.31711
1600.19; 1873.900; 1510.100; 9050.400; 1.31653
1604.01; 1842.900; 1486.400; 8899.400; 1.31793
1607.82; 1855.000; 1509.800; 8796.900; 1.32448
1611.63; 1827.600; 1480.100; 8624.900; 1.31304
1615.44; 1893.100; 1553.300; 8575.400; 1.31524
1619.25; 1814.300; 1486.200; 8361.300; 1.32127
1623.05; 1803.400; 1479.000; 8208.600; 1.31691
1626.85; 1833.600; 1513.000; 8103.300; 1.31294
1630.64; 1845.100; 1524.000; 7969.700; 1.30263
1634.44; 1814.000; 1504.600; 7800.200; 1.30852
1638.23; 1810.400; 1503.300; 7652.600; 1.30155
1642.01; 1809.000; 1506.800; 7500.000; 1.29736
1645.80; 1789.000; 1499.800; 7336.400; 1.30496
1649.58; 1793.000; 1507.600; 7165.100; 1.29717
1653.35; 1838.700; 1554.000; 7043.000; 1.28511
1657.13; 1757.700; 1486.500; 6816.300; 1.29342
1660.90; 1763.600; 1500.200; 6658.700; 1.29191
1664.67; 1742.500; 1492.900; 6464.500; 1.29925
1668.43; 1755.900; 1506.200; 6271.300; 1.28065
1672.19; 1765.300; 1522.100; 6011.600; 1.26623
1675.95; 1714.600; 1493.800; 5613.400; 1.27086
1679.70; 1742.300; 1530.900; 5235.900; 1.24368
1683.46; 1689.400; 1497.800; 4742.900; 1.22883
1687.20; 1683.500; 1511.400; 4295.600; 1.20892
1690.95; 1659.900; 1504.400; 3867.300; 1.18171
1694.69; 1656.300; 1514.400; 3526.700; 1.15171
1698.43; 1608.600; 1482.500; 3185.600; 1.13053
1702.16; 1614.700; 1497.600; 2968.200; 1.09894
1705.89; 1613.000; 1499.300; 2779.100; 1.05138
1709.62; 1593.100; 1493.100; 2618.100; 1.05115
1713.35; 1627.800; 1522.600; 2525.400; 0.97920
1717.07; 1585.200; 1492.000; 2393.400; 0.98550
1720.79; 1607.400; 1513.300; 2338.300; 0.94286
1724.50; 1611.700; 1514.000; 2272.300; 0.88995
1728.21; 1589.800; 1499.400; 2201.400; 0.89017
1731.92; 1582.400; 1495.900; 2152.500; 0.88028
1735.63; 1569.500; 1483.800; 2109.800; 0.86359
1739.33; 1615.100; 1525.100; 2113.700; 0.81558
1743.02; 1584.400; 1493.200; 2053.800; 0.78866
1746.72; 1579.800; 1494.300; 2031.700; 0.79833
1750.41; 1586.000; 1502.900; 2014.600; 0.78941
1754.10; 1597.900; 1515.500; 2011.500; 0.77955

