
Integration time [ms]:  10.000
Averaging Nr. [scans]: 10
Smoothing Nr. [pixels]: 0
Data measured with spectrometer [name]: 1911294U1
Wave   ;Sample   ;Dark     ;Reference;Absorbance
[nm]   ;[counts] ;[counts] ;[counts] ;[A.U]

 860.61; 1620.200; 1551.700; 1907.800; 0.71588
 864.82; 1575.500; 1505.600; 1955.500; 0.80864
 869.02; 1584.500; 1514.900; 2034.000; 0.87264
 873.23; 1606.100; 1530.300; 2122.800; 0.89302
 877.43; 1568.800; 1494.800; 2149.500; 0.94681
 881.63; 1604.300; 1530.800; 2256.000; 0.99417
 885.83; 1588.700; 1499.600; 2300.600; 0.95375
 890.03; 1585.000; 1501.000; 2363.200; 1.01133
 894.23; 1590.000; 1498.400; 2434.200; 1.00929
 898.42; 1571.400; 1490.200; 2489.500; 1.09014
 902.62; 1613.500; 1522.400; 2605.100; 1.07499
 906.81; 1581.800; 1488.700; 2644.500; 1.09393
 911.00; 1589.800; 1494.400; 2732.000; 1.11303
 915.19; 1609.300; 1503.000; 2840.700; 1.09983
 919.38; 1647.800; 1541.400; 2988.000; 1.13341
 923.57; 1585.700; 1477.600; 3060.100; 1.16552
 927.76; 1635.900; 1511.200; 3297.300; 1.15604
 931.94; 1622.200; 1493.300; 3511.600; 1.19473
 936.13; 1654.600; 1516.000; 3764.700; 1.21017
 940.31; 1627.300; 1484.900; 3931.100; 1.23498
 944.49; 1704.100; 1547.000; 4163.000; 1.22146
 948.67; 1680.000; 1518.900; 4297.000; 1.23665
 952.85; 1655.600; 1493.400; 4427.000; 1.25735
 957.03; 1670.700; 1501.100; 4604.000; 1.26234
 961.21; 1697.100; 1518.200; 4778.500; 1.26065
 965.38; 1690.500; 1507.600; 4921.400; 1.27102
 969.55; 1692.900; 1505.800; 5072.200; 1.28016
 973.73; 1716.000; 1520.500; 5253.800; 1.28095
 977.90; 1705.600; 1511.100; 5413.200; 1.30238
 982.06; 1725.600; 1518.800; 5592.700; 1.29446
 986.23; 1726.700; 1506.000; 5748.000; 1.28377
 990.40; 1740.500; 1519.400; 5941.100; 1.30100
 994.56; 1763.100; 1538.400; 6129.700; 1.31033
 998.72; 1771.600; 1541.900; 6290.500; 1.31540
1002.88; 1749.000; 1510.200; 6415.300; 1.31261
1007.04; 1771.200; 1529.400; 6579.000; 1.31980
1011.20; 1769.800; 1519.900; 6717.500; 1.31804
1015.36; 1797.300; 1543.200; 6867.300; 1.32124
1019.51; 1768.600; 1510.000; 6947.400; 1.32276
1023.67; 1788.400; 1530.900; 7080.200; 1.33346
1027.82; 1778.500; 1512.800; 7172.800; 1.32842
1031.97; 1795.400; 1525.500; 7291.600; 1.32968
1036.12; 1793.500; 1523.900; 7384.200; 1.33720
1040.27; 1792.800; 1520.100; 7490.500; 1.34032
1044.41; 1800.700; 1522.700; 7585.300; 1.33861
1048.56; 1820.000; 1534.900; 7704.000; 1.33522
1052.70; 1803.300; 1519.500; 7789.500; 1.34426
1056.84; 1816.900; 1529.400; 7905.400; 1.34591
1060.98; 1789.400; 1501.100; 7985.000; 1.35199
1065.11; 1811.700; 1513.900; 8119.500; 1.34599
1069.25; 1830.500; 1526.700; 8264.000; 1.34590
1073.38; 1843.100; 1527.800; 8408.100; 1.33888
1077.52; 1860.100; 1546.500; 8548.800; 1.34886
1081.65; 1849.500; 1532.900; 8683.900; 1.35386
1085.77; 1853.900; 1527.000; 8829.600; 1.34906
1089.90; 1867.300; 1533.700; 8986.900; 1.34912
1094.03; 1840.700; 1500.400; 9113.600; 1.34971
1098.15; 1883.100; 1546.400; 9322.700; 1.36353
1102.27; 1836.000; 1489.800; 9441.600; 1.36114
1106.39; 1884.500; 1527.600; 9661.400; 1.35775
1110.51; 1915.400; 1551.400; 9878.200; 1.35938
1114.63; 1877.200; 1500.800;10067.700; 1.35717
1118.74; 1943.400; 1553.000;10360.700; 1.35335
1122.85; 1914.600; 1530.700;10522.800; 1.36964
1126.96; 1901.700; 1503.600;10642.400; 1.36090
1131.07; 1956.700; 1554.700;10786.500; 1.36106
1135.18; 1905.700; 1504.600;10802.100; 1.36511
1139.29; 1916.500; 1516.000;10868.600; 1.36833
1143.39; 1944.700; 1538.200;10912.400; 1.36287
1147.49; 1924.200; 1518.500;10897.900; 1.36397
1151.59; 1921.600; 1515.000;10914.000; 1.36391
1155.69; 1948.600; 1541.600;10966.800; 1.36470
1159.78; 1910.600; 1502.700;10951.200; 1.36481
1163.88; 1948.900; 1536.300;11019.900; 1.36144
1167.97; 1951.400; 1537.000;11049.100; 1.36086
1172.06; 1930.800; 1514.600;11052.300; 1.36014
1176.15; 1923.800; 1511.400;11073.900; 1.36525
1180.23; 1968.800; 1549.600;11155.900; 1.36013
1184.32; 1916.400; 1494.700;11140.100; 1.35932
1188.40; 1933.000; 1514.000;11201.700; 1.36401
1192.48; 1940.500; 1515.300;11260.500; 1.36020
1196.56; 1941.800; 1521.200;11309.800; 1.36685
1200.64; 1967.500; 1534.600;11380.300; 1.35686
1204.71; 1942.400; 1514.200;11415.100; 1.36403
1208.78; 1956.700; 1522.400;11476.100; 1.36019
1212.85; 1980.400; 1547.900;11559.600; 1.36452
1216.92; 1902.700; 1476.200;11533.500; 1.37256
1220.99; 1969.300; 1534.300;11668.800; 1.36731
1225.05; 1966.700; 1527.500;11719.100; 1.36558
1229.11; 1946.000; 1506.200;11777.200; 1.36836
1233.17; 1985.200; 1537.300;11867.500; 1.36293
1237.23; 1981.900; 1535.100;11935.000; 1.36692
1241.29; 1981.300; 1531.200;11992.800; 1.36629
1245.34; 2011.300; 1560.000;12107.000; 1.36866
1249.39; 1955.800; 1500.000;12117.900; 1.36726
1253.44; 1974.900; 1518.900;12212.500; 1.37016
1257.49; 2019.000; 1552.800;12334.500; 1.36411
1261.53; 1982.600; 1518.900;12369.900; 1.36923
1265.58; 1989.900; 1525.900;12452.600; 1.37197
1269.62; 1990.200; 1519.600;12529.800; 1.36914
1273.65; 1997.200; 1519.900;12603.400; 1.36589
1277.69; 1985.800; 1518.000;12681.800; 1.37775
1281.72; 2012.700; 1530.100;12773.400; 1.36731
1285.76; 2012.600; 1529.900;12851.500; 1.37023
1289.79; 2008.500; 1520.800;12909.400; 1.36832
1293.81; 1995.300; 1511.100;12974.600; 1.37429
1297.84; 1977.500; 1490.200;13004.900; 1.37346
1301.86; 2041.300; 1546.100;13137.300; 1.36935
1305.88; 2015.100; 1520.800;13163.800; 1.37207
1309.90; 2035.800; 1541.300;13243.300; 1.37409
1313.92; 1993.900; 1497.800;13236.900; 1.37407
1317.93; 2028.300; 1527.400;13321.700; 1.37192
1321.94; 2017.700; 1516.400;13349.300; 1.37299
1325.95; 2018.600; 1515.800;13392.300; 1.37329
1329.96; 2038.300; 1527.200;13449.200; 1.36784
1333.96; 2037.900; 1523.500;13501.700; 1.36709
1337.96; 2041.100; 1525.700;13575.100; 1.36882
1341.96; 2047.600; 1530.100;13604.900; 1.36797
1345.96; 2019.900; 1514.800;13535.100; 1.37654
1349.95; 2006.200; 1504.900;13357.000; 1.37370
1353.95; 1989.400; 1500.800;13080.300; 1.37474
1357.94; 1992.400; 1519.000;12810.900; 1.37754
1361.92; 1989.400; 1525.200;12577.700; 1.37676
1365.91; 1964.900; 1509.100;12495.800; 1.38209
1369.89; 1958.100; 1500.900;12522.200; 1.38213
1373.87; 1942.800; 1483.400;12502.700; 1.37996
1377.85; 1997.300; 1541.800;12256.400; 1.37149
1381.82; 1930.000; 1495.800;11839.800; 1.37700
1385.80; 1981.300; 1542.900;11856.600; 1.37154
1389.77; 1967.600; 1524.900;11869.500; 1.36860
1393.74; 1945.000; 1509.900;11804.200; 1.37401
1397.70; 1992.100; 1552.300;11918.000; 1.37234
1401.66; 1966.800; 1522.100;11986.800; 1.37166
1405.62; 1950.000; 1502.000;12055.500; 1.37212
1409.58; 1984.500; 1528.700;12203.600; 1.36959
1413.54; 1977.900; 1519.400;12293.200; 1.37103
1417.49; 1936.000; 1476.800;12292.900; 1.37207
1421.44; 1990.600; 1523.100;12384.600; 1.36611
1425.39; 1972.700; 1510.500;12382.800; 1.37149
1429.33; 1994.300; 1525.700;12395.900; 1.36544
1433.27; 1982.200; 1523.700;12370.200; 1.37395
1437.21; 1960.300; 1502.800;12323.500; 1.37386
1441.15; 2005.000; 1543.700;12339.600; 1.36928
1445.09; 1993.500; 1531.000;12292.800; 1.36677
1449.02; 1945.400; 1489.700;12200.500; 1.37114
1452.95; 1990.700; 1529.700;12230.100; 1.36570
1456.87; 1988.100; 1524.100;12175.900; 1.36091
1460.80; 1968.800; 1510.600;12112.200; 1.36432
1464.72; 1957.600; 1502.500;12023.800; 1.36396
1468.64; 1954.900; 1502.300;11961.600; 1.36379
1472.55; 1971.300; 1518.100;11913.700; 1.36056
1476.47; 1976.100; 1531.300;11884.300; 1.36690
1480.38; 1970.000; 1517.300;11801.000; 1.35634
1484.28; 1979.600; 1535.000;11762.600; 1.36180
1488.19; 1963.000; 1522.200;11690.100; 1.36299
1492.09; 1929.600; 1489.900;11596.700; 1.36146
1495.99; 1943.200; 1506.600;11539.600; 1.36135
1499.89; 1952.700; 1513.300;11504.200; 1.35674
1503.78; 1949.200; 1515.200;11427.600; 1.35869
1507.67; 1970.300; 1539.800;11381.400; 1.35909
1511.56; 1928.400; 1498.300;11268.800; 1.35635
1515.44; 1955.300; 1525.700;11237.600; 1.35424
1519.33; 1937.200; 1515.200;11135.600; 1.35788
1523.21; 1941.800; 1523.900;11078.700; 1.35915
1527.08; 1932.300; 1519.400;10990.300; 1.36055
1530.96; 1918.100; 1500.300;10886.000; 1.35150
1534.83; 1956.500; 1544.300;10845.200; 1.35342
1538.70; 1913.700; 1508.600;10715.900; 1.35657
1542.56; 1898.400; 1500.900;10619.900; 1.36061
1546.42; 1916.200; 1517.300;10554.500; 1.35517
1550.28; 1910.300; 1513.400;10453.100; 1.35264
1554.14; 1905.800; 1508.800;10345.500; 1.34750
1557.99; 1914.100; 1525.700;10266.900; 1.35229
1561.84; 1881.100; 1498.400;10122.900; 1.35288
1565.69; 1892.300; 1516.200;10052.800; 1.35598
1569.54; 1883.100; 1503.300; 9933.900; 1.34630
1573.38; 1872.300; 1501.700; 9824.400; 1.35136
1577.22; 1899.600; 1527.000; 9752.100; 1.34390
1581.05; 1876.000; 1512.400; 9625.200; 1.34855
1584.89; 1888.100; 1524.900; 9522.100; 1.34279
1588.72; 1876.200; 1517.700; 9409.100; 1.34266
1592.54; 1851.300; 1506.200; 9274.600; 1.35239
1596.37; 1872.900; 1517.200; 9177.600; 1.33317
1600.19; 1856.900; 1510.100; 9050.400; 1.33731
1604.01; 1824.100; 1486.400; 8899.400; 1.34146
1607.82; 1843.000; 1509.800; 8796.900; 1.33985
1611.63; 1807.000; 1480.100; 8624.900; 1.33958
1615.44; 1880.500; 1553.300; 8575.400; 1.33165
1619.25; 1798.500; 1486.200; 8361.300; 1.34271
1623.05; 1787.600; 1479.000; 8208.600; 1.33859
1626.85; 1821.900; 1513.000; 8103.300; 1.32909
1630.64; 1828.100; 1524.000; 7969.700; 1.32625
1634.44; 1801.400; 1504.600; 7800.200; 1.32657
1638.23; 1798.400; 1503.300; 7652.600; 1.31886
1642.01; 1789.700; 1506.800; 7500.000; 1.32603
1645.80; 1776.400; 1499.800; 7336.400; 1.32431
1649.58; 1780.500; 1507.600; 7165.100; 1.31662
1653.35; 1821.000; 1554.000; 7043.000; 1.31298
1657.13; 1744.000; 1486.500; 6816.300; 1.31593
1660.90; 1753.300; 1500.200; 6658.700; 1.30923
1664.67; 1731.700; 1492.900; 6464.500; 1.31846
1668.43; 1739.400; 1506.200; 6271.300; 1.31034
1672.19; 1754.000; 1522.100; 6011.600; 1.28690
1675.95; 1705.500; 1493.800; 5613.400; 1.28913
1679.70; 1729.200; 1530.900; 5235.900; 1.27147
1683.46; 1679.900; 1497.800; 4742.900; 1.25092
1687.20; 1671.600; 1511.400; 4295.600; 1.24004
1690.95; 1649.500; 1504.400; 3867.300; 1.21178
1694.69; 1643.900; 1514.400; 3526.700; 1.19142
1698.43; 1601.400; 1482.500; 3185.600; 1.15606
1702.16; 1605.500; 1497.600; 2968.200; 1.13447
1705.89; 1605.400; 1499.300; 2779.100; 1.08143
1709.62; 1586.800; 1493.100; 2618.100; 1.07941
1713.35; 1618.800; 1522.600; 2525.400; 1.01804
1717.07; 1572.800; 1492.000; 2393.400; 1.04751
1720.79; 1600.100; 1513.300; 2338.300; 0.97793
1724.50; 1598.000; 1514.000; 2272.300; 0.95556
1728.21; 1582.400; 1499.400; 2201.400; 0.92726
1731.92; 1572.500; 1495.900; 2152.500; 0.93307
1735.63; 1561.300; 1483.800; 2109.800; 0.90727
1739.33; 1604.800; 1525.100; 2113.700; 0.86836
1743.02; 1569.800; 1493.200; 2053.800; 0.86442
1746.72; 1571.100; 1494.300; 2031.700; 0.84494
1750.41; 1578.200; 1502.900; 2014.600; 0.83222
1754.10; 1584.900; 1515.500; 2011.500; 0.85412

