
Integration time [ms]:   3.780
Averaging Nr. [scans]: 1
Smoothing Nr. [pixels]: 0
Data measured with spectrometer [name]: 1911294U1
Wave   ;Sample   ;Dark     ;Reference;Absorbance
[nm]   ;[counts] ;[counts] ;[counts] ;[A.U]

 860.61;  181.500;   67.750;  833.250; 0.82799
 864.82;  168.500;   49.750;  998.250; 0.90240
 869.02;  199.500;   59.750; 1169.250; 0.89978
 873.23;  227.500;   54.750; 1288.250; 0.85372
 877.43;  231.500;   53.750; 1415.250; 0.88421
 881.63;  240.500;   54.750; 1540.250; 0.90294
 885.83;  267.500;   49.750; 1684.250; 0.87543
 890.03;  267.500;   28.750; 1796.250; 0.86942
 894.23;  301.500;   40.750; 1929.250; 0.85989
 898.42;  311.500;   37.750; 2071.250; 0.87089
 902.62;  327.500;   56.750; 2213.250; 0.90118
 906.81;  333.500;   35.750; 2337.250; 0.88816
 911.00;  381.500;   53.750; 2523.250; 0.87707
 915.19;  402.500;   45.750; 2712.250; 0.87358
 919.38;  445.500;   47.750; 2963.250; 0.86510
 923.57;  481.500;   53.750; 3292.250; 0.87915
 927.76;  528.500;   40.750; 3728.250; 0.87853
 931.94;  582.500;   39.750; 4163.250; 0.88067
 936.13;  632.500;   53.750; 4579.250; 0.89318
 940.31;  680.500;   50.750; 4873.250; 0.88410
 944.49;  734.500;   63.750; 5167.250; 0.88131
 948.67;  739.500;   49.750; 5411.250; 0.89059
 952.85;  760.500;   50.750; 5679.250; 0.89929
 957.03;  797.500;   47.750; 5965.250; 0.89722
 961.21;  837.500;   58.750; 6236.250; 0.89941
 965.38;  872.500;   44.750; 6471.250; 0.89008
 969.55;  889.500;   37.750; 6719.250; 0.89456
 973.73;  929.500;   56.750; 6971.250; 0.89887
 977.90;  946.500;   42.750; 7222.250; 0.90005
 982.06; 1010.500;   44.750; 7469.250; 0.88580
 986.23; 1019.500;   51.750; 7739.250; 0.90002
 990.40; 1070.500;   61.750; 7985.250; 0.89513
 994.56; 1090.500;   65.750; 8243.250; 0.90200
 998.72; 1118.500;   58.750; 8450.250; 0.89864
1002.88; 1152.500;   57.750; 8670.250; 0.89581
1007.04; 1191.500;   52.750; 8879.250; 0.88936
1011.20; 1198.500;   49.750; 9068.250; 0.89491
1015.36; 1226.500;   45.750; 9257.250; 0.89217
1019.51; 1252.500;   60.750; 9402.250; 0.89423
1023.67; 1289.500;   69.750; 9574.250; 0.89166
1027.82; 1303.500;   61.750; 9729.250; 0.89128
1031.97; 1314.500;   55.750; 9851.250; 0.89109
1036.12; 1338.500;   49.750;10022.250; 0.88864
1040.27; 1357.500;   61.750;10174.250; 0.89234
1044.41; 1382.500;   73.750;10320.250; 0.89372
1048.56; 1401.500;   53.750;10468.250; 0.88803
1052.70; 1416.500;   58.750;10629.250; 0.89128
1056.84; 1446.500;   47.750;10798.250; 0.88569
1060.98; 1474.500;   67.750;10996.250; 0.89034
1065.11; 1506.500;   63.750;11181.250; 0.88682
1069.25; 1528.500;   63.750;11391.250; 0.88837
1073.38; 1541.500;   56.750;11632.250; 0.89189
1077.52; 1600.500;   70.750;11862.250; 0.88695
1081.65; 1626.500;   62.750;12105.250; 0.88655
1085.77; 1646.500;   60.750;12352.250; 0.88937
1089.90; 1691.500;   56.750;12603.250; 0.88507
1094.03; 1708.500;   65.750;12857.250; 0.89135
1098.15; 1747.500;   68.750;13146.250; 0.89154
1102.27; 1786.500;   66.750;13436.250; 0.89065
1106.39; 1824.500;   69.750;13733.250; 0.89135
1110.51; 1861.500;   69.750;14055.250; 0.89240
1114.63; 1905.500;   49.750;14464.250; 0.89028
1118.74; 1959.500;   73.750;14874.250; 0.89479
1122.85; 1992.500;   70.750;15167.250; 0.89518
1126.96; 2001.500;   61.750;15350.250; 0.89662
1131.07; 2016.500;   57.750;15457.250; 0.89553
1135.18; 1990.500;   63.750;15545.250; 0.90499
1139.29; 1961.500;   45.750;15604.250; 0.90963
1143.39; 1963.500;   62.750;15613.250; 0.91282
1147.49; 1918.500;   71.750;15592.250; 0.92450
1151.59; 1893.500;   71.750;15618.250; 0.93114
1155.69; 1876.500;   64.750;15618.250; 0.93373
1159.78; 1872.500;   61.750;15619.250; 0.93408
1163.88; 1869.500;   66.750;15654.250; 0.93684
1167.97; 1856.500;   60.750;15657.250; 0.93878
1172.06; 1844.500;   60.750;15668.250; 0.94200
1176.15; 1837.500;   53.750;15670.250; 0.94225
1180.23; 1845.500;   59.750;15679.250; 0.94185
1184.32; 1820.500;   50.750;15690.250; 0.94631
1188.40; 1831.500;   57.750;15712.250; 0.94575
1192.48; 1835.500;   55.750;15725.250; 0.94470
1196.56; 1830.500;   53.750;15754.250; 0.94629
1200.64; 1860.500;   72.750;15783.250; 0.94388
1204.71; 1841.500;   50.750;15806.250; 0.94440
1208.78; 1865.500;   69.750;15849.250; 0.94385
1212.85; 1867.500;   54.750;15854.250; 0.94031
1216.92; 1854.500;   37.750;15840.250; 0.93943
1220.99; 1873.500;   49.750;15897.250; 0.93900
1225.05; 1896.500;   60.750;15920.250; 0.93648
1229.11; 1886.500;   53.750;15924.250; 0.93749
1233.17; 1905.500;   58.750;15926.250; 0.93410
1237.23; 1898.500;   49.750;15943.250; 0.93434
1241.29; 1910.500;   51.750;15960.250; 0.93241
1245.34; 1925.500;   79.750;16029.250; 0.93657
1249.39; 1924.500;   55.750;16081.250; 0.93326
1253.44; 1938.500;   36.750;16122.250; 0.92728
1257.49; 1966.500;   73.750;16225.250; 0.93112
1261.53; 1974.500;   40.750;16273.250; 0.92399
1265.58; 1970.500;   46.750;16338.250; 0.92781
1269.62; 1971.500;   46.750;16412.250; 0.92955
1273.65; 1978.500;   55.750;16472.250; 0.93136
1277.69; 1980.500;   53.750;16552.250; 0.93262
1281.72; 1996.500;   65.750;16612.250; 0.93298
1285.76; 1992.500;   66.750;16662.250; 0.93539
1289.79; 2009.500;   56.750;16697.250; 0.93052
1293.81; 2000.500;   44.750;16713.250; 0.93058
1297.84; 1981.500;   49.750;16765.250; 0.93717
1301.86; 1985.500;   43.750;16807.250; 0.93617
1305.88; 1981.500;   58.750;16824.250; 0.94049
1309.90; 1974.500;   49.750;16842.250; 0.94074
1313.92; 1937.500;   55.750;16828.250; 0.95004
1317.93; 1934.500;   65.750;16838.250; 0.95305
1321.94; 1902.500;   46.750;16825.250; 0.95623
1325.95; 1868.500;   64.750;16797.250; 0.96738
1329.96; 1854.500;   63.750;16802.250; 0.97068
1333.96; 1826.500;   52.750;16773.250; 0.97436
1337.96; 1764.500;   63.750;16776.250; 0.99240
1341.96; 1742.500;   46.750;16748.250; 0.99339
1345.96; 1717.500;   59.750;16622.250; 0.99961
1349.95; 1664.500;   42.750;16410.250; 1.00400
1353.95; 1614.500;   67.750;16154.250; 1.01704
1357.94; 1567.500;   50.750;15843.250; 1.01754
1361.92; 1522.500;   50.750;15571.250; 1.02307
1365.91; 1448.500;   46.750;15308.250; 1.03693
1369.89; 1389.500;   50.750;15042.250; 1.04915
1373.87; 1300.500;   48.750;14460.250; 1.06119
1377.85; 1167.500;   60.750;13607.250; 1.08778
1381.82; 1014.500;   48.750;12795.250; 1.12053
1385.80;  915.500;   50.750;12441.250; 1.15620
1389.77;  806.500;   54.750;12376.250; 1.21459
1393.74;  691.500;   63.750;12523.250; 1.29771
1397.70;  621.500;   57.750;12861.250; 1.35624
1401.66;  534.500;   57.750;13177.250; 1.43963
1405.62;  449.500;   34.750;13448.250; 1.50976
1409.58;  402.500;   50.750;13653.250; 1.58738
1413.54;  363.500;   50.750;13787.250; 1.64268
1417.49;  322.500;   27.750;13838.250; 1.67076
1421.44;  314.500;   63.750;13894.250; 1.74160
1425.39;  274.500;   54.750;13879.250; 1.79872
1429.33;  290.500;   64.750;13864.250; 1.78624
1433.27;  249.500;   54.750;13809.250; 1.84897
1437.21;  254.500;   48.750;13776.250; 1.82425
1441.15;  262.500;   52.750;13748.250; 1.81488
1445.09;  256.500;   60.750;13691.250; 1.84281
1449.02;  240.500;   57.750;13611.250; 1.87019
1452.95;  260.500;   52.750;13536.250; 1.81226
1456.87;  248.500;   53.750;13439.250; 1.83716
1460.80;  232.500;   43.750;13345.250; 1.84801
1464.72;  245.500;   59.750;13253.250; 1.85143
1468.64;  237.500;   43.750;13131.250; 1.82961
1472.55;  253.500;   63.750;13051.250; 1.83534
1476.47;  263.500;   43.750;12969.250; 1.76952
1480.38;  287.500;   38.750;12870.250; 1.71251
1484.28;  300.500;   54.750;12750.250; 1.71316
1488.19;  310.500;   50.750;12663.250; 1.68625
1492.09;  304.500;   28.750;12533.250; 1.65655
1495.99;  345.500;   58.750;12434.250; 1.63506
1499.89;  363.500;   46.750;12320.250; 1.58825
1503.78;  373.500;   48.750;12228.250; 1.57408
1507.67;  398.500;   52.750;12113.250; 1.54260
1511.56;  399.500;   33.750;11982.250; 1.51413
1515.44;  430.500;   50.750;11884.250; 1.49362
1519.33;  453.500;   48.750;11757.250; 1.46131
1523.21;  474.500;   35.750;11649.250; 1.42275
1527.08;  482.500;   57.750;11506.250; 1.43062
1530.96;  491.500;   39.750;11368.250; 1.39927
1534.83;  536.500;   52.750;11249.250; 1.36446
1538.70;  528.500;   57.750;11082.250; 1.36957
1542.56;  530.500;   28.750;10958.250; 1.33811
1546.42;  558.500;   39.750;10836.250; 1.31832
1550.28;  579.500;   58.750;10683.250; 1.30968
1554.14;  575.500;   39.750;10510.250; 1.29101
1557.99;  579.500;   41.750;10388.250; 1.28421
1561.84;  604.500;   33.750;10234.250; 1.25218
1565.69;  596.500;   40.750;10095.250; 1.25748
1569.54;  615.500;   24.750; 9939.250; 1.22487
1573.38;  615.500;   40.750; 9804.250; 1.23013
1577.22;  617.500;   31.750; 9649.250; 1.21535
1581.05;  627.500;   49.750; 9522.250; 1.21472
1584.89;  635.500;   45.750; 9369.250; 1.19891
1588.72;  647.500;   41.750; 9215.250; 1.18024
1592.54;  637.500;   35.750; 9061.250; 1.17606
1596.37;  630.500;   22.750; 8908.250; 1.16496
1600.19;  645.500;   43.750; 8774.250; 1.16162
1604.01;  637.500;   33.750; 8610.250; 1.15245
1607.82;  631.500;   31.750; 8473.250; 1.14845
1611.63;  606.500;   22.750; 8316.250; 1.15251
1615.44;  632.500;   26.750; 8167.250; 1.12836
1619.25;  612.500;   34.750; 7998.250; 1.13936
1623.05;  612.500;   13.750; 7822.250; 1.11532
1626.85;  615.500;   26.750; 7668.250; 1.11325
1630.64;  604.500;   42.750; 7511.250; 1.12369
1634.44;  601.500;   26.750; 7307.250; 1.10268
1638.23;  579.500;   18.750; 7114.250; 1.10221
1642.01;  587.500;   39.750; 6938.250; 1.10017
1645.80;  577.500;   42.750; 6743.250; 1.09796
1649.58;  565.500;   38.750; 6531.250; 1.09081
1653.35;  558.500;   44.750; 6309.250; 1.08613
1657.13;  517.500;   36.750; 6064.250; 1.09822
1660.90;  511.500;   34.750; 5808.250; 1.08315
1664.67;  474.500;   28.750; 5491.250; 1.08830
1668.43;  466.500;   24.750; 5119.250; 1.06193
1672.19;  416.500;   35.750; 4656.250; 1.08405
1675.95;  376.500;   31.750; 4113.250; 1.07332
1679.70;  331.500;   46.750; 3563.250; 1.09165
1683.46;  292.500;   23.750; 3047.250; 1.05116
1687.20;  270.500;   39.750; 2617.250; 1.04806
1690.95;  235.500;   36.750; 2243.250; 1.04540
1694.69;  201.500;   56.750; 1964.250; 1.11985
1698.43;  179.500;   22.750; 1699.250; 1.02920
1702.16;  185.500;   44.750; 1533.250; 1.02430
1705.89;  184.500;   30.750; 1372.250; 0.94078
1709.62;  153.500;   25.750; 1277.250; 0.99107
1713.35;  150.500;   17.750; 1187.250; 0.94497
1717.07;  151.500;   42.750; 1123.250; 0.99720
1720.79;  142.500;   41.750; 1064.250; 1.00642
1724.50;  153.500;   44.750; 1019.250; 0.95235
1728.21;  150.500;   29.750;  974.250; 0.89331
1731.92;  148.500;   25.750;  931.250; 0.86787
1735.63;  127.500;   34.750;  925.250; 0.98232
1739.33;  150.500;   23.750;  909.250; 0.84424
1743.02;  132.500;   21.750;  865.250; 0.88174
1746.72;  134.500;   33.750;  872.250; 0.92026
1750.41;  149.500;   37.750;  865.250; 0.86952
1754.10;  133.500;   44.750;  846.250; 0.95574

