
Integration time [ms]:   3.780
Averaging Nr. [scans]: 1
Smoothing Nr. [pixels]: 0
Data measured with spectrometer [name]: 1911294U1
Wave   ;Sample   ;Dark     ;Reference;Absorbance
[nm]   ;[counts] ;[counts] ;[counts] ;[A.U]

 860.61;  116.000;   67.750;  833.250; 1.20045
 864.82;  118.000;   49.750;  998.250; 1.14293
 869.02;  143.000;   59.750; 1169.250; 1.12474
 873.23;  138.000;   54.750; 1288.250; 1.17075
 877.43;  150.000;   53.750; 1415.250; 1.15062
 881.63;  158.000;   54.750; 1540.250; 1.15798
 885.83;  171.000;   49.750; 1684.250; 1.12970
 890.03;  164.000;   28.750; 1796.250; 1.11622
 894.23;  171.000;   40.750; 1929.250; 1.16134
 898.42;  177.000;   37.750; 2071.250; 1.16445
 902.62;  205.000;   56.750; 2213.250; 1.16275
 906.81;  190.000;   35.750; 2337.250; 1.17379
 911.00;  220.000;   53.750; 2523.250; 1.17185
 915.19;  234.000;   45.750; 2712.250; 1.15121
 919.38;  263.000;   47.750; 2963.250; 1.13177
 923.57;  279.000;   53.750; 3292.250; 1.15768
 927.76;  303.000;   40.750; 3728.250; 1.14802
 931.94;  336.000;   39.750; 4163.250; 1.14361
 936.13;  355.000;   53.750; 4579.250; 1.17674
 940.31;  374.000;   50.750; 4873.250; 1.17373
 944.49;  416.000;   63.750; 5167.250; 1.16102
 948.67;  420.000;   49.750; 5411.250; 1.16079
 952.85;  406.000;   50.750; 5679.250; 1.19986
 957.03;  454.000;   47.750; 5965.250; 1.16334
 961.21;  455.000;   58.750; 6236.250; 1.19284
 965.38;  470.000;   44.750; 6471.250; 1.17933
 969.55;  472.000;   37.750; 6719.250; 1.18713
 973.73;  497.000;   56.750; 6971.250; 1.19606
 977.90;  513.000;   42.750; 7222.250; 1.18377
 982.06;  534.000;   44.750; 7469.250; 1.18114
 986.23;  541.000;   51.750; 7739.250; 1.19625
 990.40;  578.000;   61.750; 7985.250; 1.18606
 994.56;  573.000;   65.750; 8243.250; 1.20740
 998.72;  597.000;   58.750; 8450.250; 1.19286
1002.88;  621.000;   57.750; 8670.250; 1.18443
1007.04;  619.000;   52.750; 8879.250; 1.19278
1011.20;  637.000;   49.750; 9068.250; 1.18631
1015.36;  643.000;   45.750; 9257.250; 1.18817
1019.51;  665.000;   60.750; 9402.250; 1.18920
1023.67;  687.000;   69.750; 9574.250; 1.18747
1027.82;  688.000;   61.750; 9729.250; 1.18857
1031.97;  685.000;   55.750; 9851.250; 1.19220
1036.12;  712.000;   49.750;10022.250; 1.17778
1040.27;  723.000;   61.750;10174.250; 1.18449
1044.41;  732.000;   73.750;10320.250; 1.19218
1048.56;  746.000;   53.750;10468.250; 1.17738
1052.70;  747.000;   58.750;10629.250; 1.18635
1056.84;  768.000;   47.750;10798.250; 1.17395
1060.98;  766.000;   67.750;10996.250; 1.19455
1065.11;  790.000;   63.750;11181.250; 1.18492
1069.25;  799.000;   63.750;11391.250; 1.18770
1073.38;  818.000;   56.750;11632.250; 1.18201
1077.52;  844.000;   70.750;11862.250; 1.18325
1081.65;  847.000;   62.750;12105.250; 1.18626
1085.77;  863.000;   60.750;12352.250; 1.18530
1089.90;  880.000;   56.750;12603.250; 1.18299
1094.03;  883.000;   65.750;12857.250; 1.19457
1098.15;  902.000;   68.750;13146.250; 1.19575
1102.27;  932.000;   66.750;13436.250; 1.18897
1106.39;  946.000;   69.750;13733.250; 1.19293
1110.51;  970.000;   69.750;14055.250; 1.19131
1114.63;  974.000;   49.750;14464.250; 1.19301
1118.74; 1007.000;   73.750;14874.250; 1.20028
1122.85; 1020.000;   70.750;15167.250; 1.20150
1126.96; 1011.000;   61.750;15350.250; 1.20698
1131.07; 1023.000;   57.750;15457.250; 1.20287
1135.18;  997.000;   63.750;15545.250; 1.21982
1139.29;  974.000;   45.750;15604.250; 1.22430
1143.39;  972.000;   62.750;15613.250; 1.23306
1147.49;  944.000;   71.750;15592.250; 1.25026
1151.59;  928.000;   71.750;15618.250; 1.25903
1155.69;  905.000;   64.750;15618.250; 1.26742
1159.78;  903.000;   61.750;15619.250; 1.26701
1163.88;  896.000;   66.750;15654.250; 1.27409
1167.97;  878.000;   60.750;15657.250; 1.28067
1172.06;  876.000;   60.750;15668.250; 1.28204
1176.15;  869.000;   53.750;15670.250; 1.28229
1180.23;  868.000;   59.750;15679.250; 1.28612
1184.32;  864.000;   50.750;15690.250; 1.28400
1188.40;  853.000;   57.750;15712.250; 1.29414
1192.48;  860.000;   55.750;15725.250; 1.28966
1196.56;  873.000;   53.750;15754.250; 1.28250
1200.64;  880.000;   72.750;15783.250; 1.28918
1204.71;  862.000;   50.750;15806.250; 1.28828
1208.78;  889.000;   69.750;15849.250; 1.28468
1212.85;  866.000;   54.750;15854.250; 1.28949
1216.92;  877.000;   37.750;15840.250; 1.27483
1220.99;  888.000;   49.750;15897.250; 1.27659
1225.05;  901.000;   60.750;15920.250; 1.27588
1229.11;  905.000;   53.750;15924.250; 1.27053
1233.17;  899.000;   58.750;15926.250; 1.27610
1237.23;  901.000;   49.750;15943.250; 1.27116
1241.29;  910.000;   51.750;15960.250; 1.26802
1245.34;  921.000;   79.750;16029.250; 1.27782
1249.39;  903.000;   55.750;16081.250; 1.27680
1253.44;  912.000;   36.750;16122.250; 1.26430
1257.49;  931.000;   73.750;16225.250; 1.27511
1261.53;  947.000;   40.750;16273.250; 1.25314
1265.58;  937.000;   46.750;16338.250; 1.26245
1269.62;  930.000;   46.750;16412.250; 1.26785
1273.65;  928.000;   55.750;16472.250; 1.27464
1277.69;  936.000;   53.750;16552.250; 1.27185
1281.72;  936.000;   65.750;16612.250; 1.27906
1285.76;  933.000;   66.750;16662.250; 1.28235
1289.79;  937.000;   56.750;16697.250; 1.27656
1293.81;  918.000;   44.750;16713.250; 1.28076
1297.84;  916.000;   49.750;16765.250; 1.28548
1301.86;  926.000;   43.750;16807.250; 1.27877
1305.88;  923.000;   58.750;16824.250; 1.28778
1309.90;  909.000;   49.750;16842.250; 1.29100
1313.92;  891.000;   55.750;16828.250; 1.30278
1317.93;  880.000;   65.750;16838.250; 1.31384
1321.94;  851.000;   46.750;16825.250; 1.31936
1325.95;  844.000;   64.750;16797.250; 1.33188
1329.96;  823.000;   63.750;16802.250; 1.34333
1333.96;  810.000;   52.750;16773.250; 1.34401
1337.96;  770.000;   63.750;16776.250; 1.37408
1341.96;  754.000;   46.750;16748.250; 1.37318
1345.96;  738.000;   59.750;16622.250; 1.38774
1349.95;  688.000;   42.750;16410.250; 1.40425
1353.95;  681.000;   67.750;16154.250; 1.41882
1357.94;  669.000;   50.750;15843.250; 1.40729
1361.92;  647.000;   50.750;15571.250; 1.41548
1365.91;  597.000;   46.750;15308.250; 1.44304
1369.89;  578.000;   50.750;15042.250; 1.45383
1373.87;  533.000;   48.750;14460.250; 1.47364
1377.85;  477.000;   60.750;13607.250; 1.51247
1381.82;  410.000;   48.750;12795.250; 1.54758
1385.80;  369.000;   50.750;12441.250; 1.59032
1389.77;  315.000;   54.750;12376.250; 1.67527
1393.74;  281.000;   63.750;12523.250; 1.75854
1397.70;  253.000;   57.750;12861.250; 1.81674
1401.66;  209.000;   57.750;13177.250; 1.93822
1405.62;  195.000;   34.750;13448.250; 1.92274
1409.58;  178.000;   50.750;13653.250; 2.02896
1413.54;  167.000;   50.750;13787.250; 2.07248
1417.49;  143.000;   27.750;13838.250; 2.07857
1421.44;  153.000;   63.750;13894.250; 2.19023
1425.39;  150.000;   54.750;13879.250; 2.16178
1429.33;  145.000;   64.750;13864.250; 2.23542
1433.27;  132.000;   54.750;13809.250; 2.25055
1437.21;  134.000;   48.750;13776.250; 2.20690
1441.15;  155.000;   52.750;13748.250; 2.12691
1445.09;  127.000;   60.750;13691.250; 2.31333
1449.02;  123.000;   57.750;13611.250; 2.31747
1452.95;  144.000;   52.750;13536.250; 2.16957
1456.87;  123.000;   53.750;13439.250; 2.28621
1460.80;  118.000;   43.750;13345.250; 2.25320
1464.72;  132.000;   59.750;13253.250; 2.26152
1468.64;  120.000;   43.750;13131.250; 2.23462
1472.55;  144.000;   63.750;13051.250; 2.20908
1476.47;  130.000;   43.750;12969.250; 2.17569
1480.38;  131.000;   38.750;12870.250; 2.14331
1484.28;  144.000;   54.750;12750.250; 2.15304
1488.19;  134.000;   50.750;12663.250; 2.18042
1492.09;  110.000;   28.750;12533.250; 2.18724
1495.99;  135.000;   58.750;12434.250; 2.21032
1499.89;  142.000;   46.750;12320.250; 2.11010
1503.78;  140.000;   48.750;12228.250; 2.12540
1507.67;  147.000;   52.750;12113.250; 2.10708
1511.56;  149.000;   33.750;11982.250; 2.01567
1515.44;  158.000;   50.750;11884.250; 2.04272
1519.33;  173.000;   48.750;11757.250; 1.97420
1523.21;  160.000;   35.750;11649.250; 1.97067
1527.08;  174.000;   57.750;11506.250; 1.99336
1530.96;  175.000;   39.750;11368.250; 1.92304
1534.83;  189.000;   52.750;11249.250; 1.91475
1538.70;  191.000;   57.750;11082.250; 1.91769
1542.56;  172.000;   28.750;10958.250; 1.88251
1546.42;  189.000;   39.750;10836.250; 1.85937
1550.28;  204.000;   58.750;10683.250; 1.86419
1554.14;  187.000;   39.750;10510.250; 1.85191
1557.99;  206.000;   41.750;10388.250; 1.79929
1561.84;  210.000;   33.750;10234.250; 1.76249
1565.69;  203.000;   40.750;10095.250; 1.79218
1569.54;  212.000;   24.750; 9939.250; 1.72385
1573.38;  212.000;   40.750; 9804.250; 1.75597
1577.22;  209.000;   31.750; 9649.250; 1.73448
1581.05;  199.000;   49.750; 9522.250; 1.80255
1584.89;  220.000;   45.750; 9369.250; 1.72841
1588.72;  218.000;   41.750; 9215.250; 1.71641
1592.54;  220.000;   35.750; 9061.250; 1.69006
1596.37;  223.000;   22.750; 8908.250; 1.64711
1600.19;  222.000;   43.750; 8774.250; 1.69001
1604.01;  206.000;   33.750; 8610.250; 1.69715
1607.82;  201.000;   31.750; 8473.250; 1.69789
1611.63;  200.000;   22.750; 8316.250; 1.67015
1615.44;  222.000;   26.750; 8167.250; 1.62006
1619.25;  205.000;   34.750; 7998.250; 1.67002
1623.05;  197.000;   13.750; 7822.250; 1.62952
1626.85;  215.000;   26.750; 7668.250; 1.60844
1630.64;  224.000;   42.750; 7511.250; 1.61496
1634.44;  211.000;   26.750; 7307.250; 1.59675
1638.23;  187.000;   18.750; 7114.250; 1.62503
1642.01;  207.000;   39.750; 6938.250; 1.61539
1645.80;  202.000;   42.750; 6743.250; 1.62403
1649.58;  192.000;   38.750; 6531.250; 1.62701
1653.35;  210.000;   44.750; 6309.250; 1.57874
1657.13;  178.000;   36.750; 6064.250; 1.63015
1660.90;  194.000;   34.750; 5808.250; 1.55936
1664.67;  167.000;   28.750; 5491.250; 1.59673
1668.43;  168.000;   24.750; 5119.250; 1.55101
1672.19;  159.000;   35.750; 4656.250; 1.57390
1675.95;  123.000;   31.750; 4113.250; 1.65059
1679.70;  127.000;   46.750; 3563.250; 1.64167
1683.46;  116.000;   23.750; 3047.250; 1.51554
1687.20;  118.000;   39.750; 2617.250; 1.51771
1690.95;  102.000;   36.750; 2243.250; 1.52912
1694.69;   94.000;   56.750; 1964.250; 1.70934
1698.43;   92.000;   22.750; 1699.250; 1.38398
1702.16;   80.000;   44.750; 1533.250; 1.62559
1705.89;   81.000;   30.750; 1372.250; 1.42645
1709.62;   85.000;   25.750; 1277.250; 1.32474
1713.35;   81.000;   17.750; 1187.250; 1.26694
1717.07;   82.000;   42.750; 1123.250; 1.43979
1720.79;   88.000;   41.750; 1064.250; 1.34455
1724.50;   79.000;   44.750; 1019.250; 1.45412
1728.21;   93.000;   29.750;  974.250; 1.17414
1731.92;   79.000;   25.750;  931.250; 1.23057
1735.63;   89.000;   34.750;  925.250; 1.21523
1739.33;   76.000;   23.750;  909.250; 1.22910
1743.02;   78.000;   21.750;  865.250; 1.17596
1746.72;   73.000;   33.750;  872.250; 1.32966
1750.41;   94.000;   37.750;  865.250; 1.16765
1754.10;   93.000;   44.750;  846.250; 1.22041

