
Integration time [ms]:   3.780
Averaging Nr. [scans]: 1
Smoothing Nr. [pixels]: 0
Data measured with spectrometer [name]: 1911294U1
Wave   ;Sample   ;Dark     ;Reference;Absorbance
[nm]   ;[counts] ;[counts] ;[counts] ;[A.U]

 860.61;  118.000;   67.750;  833.250; 1.18281
 864.82;  138.000;   49.750;  998.250; 1.03132
 869.02;  152.000;   59.750; 1169.250; 1.08016
 873.23;  170.000;   54.750; 1288.250; 1.02950
 877.43;  163.000;   53.750; 1415.250; 1.09560
 881.63;  164.000;   54.750; 1540.250; 1.13345
 885.83;  186.000;   49.750; 1684.250; 1.07905
 890.03;  175.000;   28.750; 1796.250; 1.08226
 894.23;  184.000;   40.750; 1929.250; 1.12002
 898.42;  201.000;   37.750; 2071.250; 1.09539
 902.62;  221.000;   56.750; 2213.250; 1.11824
 906.81;  212.000;   35.750; 2337.250; 1.11588
 911.00;  255.000;   53.750; 2523.250; 1.08887
 915.19;  255.000;   45.750; 2712.250; 1.10528
 919.38;  286.000;   47.750; 2963.250; 1.08768
 923.57;  298.000;   53.750; 3292.250; 1.12251
 927.76;  323.000;   40.750; 3728.250; 1.11610
 931.94;  371.000;   39.750; 4163.250; 1.09511
 936.13;  387.000;   53.750; 4579.250; 1.13290
 940.31;  416.000;   50.750; 4873.250; 1.12068
 944.49;  438.000;   63.750; 5167.250; 1.13471
 948.67;  455.000;   49.750; 5411.250; 1.12156
 952.85;  461.000;   50.750; 5679.250; 1.13734
 957.03;  481.000;   47.750; 5965.250; 1.13540
 961.21;  505.000;   58.750; 6236.250; 1.14123
 965.38;  518.000;   44.750; 6471.250; 1.13288
 969.55;  499.000;   37.750; 6719.250; 1.16094
 973.73;  538.000;   56.750; 6971.250; 1.15739
 977.90;  538.000;   42.750; 7222.250; 1.16127
 982.06;  574.000;   44.750; 7469.250; 1.14701
 986.23;  594.000;   51.750; 7739.250; 1.15159
 990.40;  613.000;   61.750; 7985.250; 1.15757
 994.56;  632.000;   65.750; 8243.250; 1.15961
 998.72;  642.000;   58.750; 8450.250; 1.15798
1002.88;  664.000;   57.750; 8670.250; 1.15248
1007.04;  676.000;   52.750; 8879.250; 1.15113
1011.20;  692.000;   49.750; 9068.250; 1.14743
1015.36;  691.000;   45.750; 9257.250; 1.15460
1019.51;  710.000;   60.750; 9402.250; 1.15800
1023.67;  735.000;   69.750; 9574.250; 1.15494
1027.82;  743.000;   61.750; 9729.250; 1.15201
1031.97;  745.000;   55.750; 9851.250; 1.15265
1036.12;  759.000;   49.750;10022.250; 1.14800
1040.27;  778.000;   61.750;10174.250; 1.14979
1044.41;  795.000;   73.750;10320.250; 1.15249
1048.56;  805.000;   53.750;10468.250; 1.14185
1052.70;  804.000;   58.750;10629.250; 1.15179
1056.84;  821.000;   47.750;10798.250; 1.14311
1060.98;  824.000;   67.750;10996.250; 1.15990
1065.11;  865.000;   63.750;11181.250; 1.14224
1069.25;  862.000;   63.750;11391.250; 1.15200
1073.38;  879.000;   56.750;11632.250; 1.14854
1077.52;  906.000;   70.750;11862.250; 1.14975
1081.65;  921.000;   62.750;12105.250; 1.14710
1085.77;  928.000;   60.750;12352.250; 1.15146
1089.90;  946.000;   56.750;12603.250; 1.14950
1094.03;  967.000;   65.750;12857.250; 1.15208
1098.15;  986.000;   68.750;13146.250; 1.15404
1102.27;  988.000;   66.750;13436.250; 1.16174
1106.39; 1029.000;   69.750;13733.250; 1.15363
1110.51; 1048.000;   69.750;14055.250; 1.15523
1114.63; 1061.000;   49.750;14464.250; 1.15394
1118.74; 1094.000;   73.750;14874.250; 1.16157
1122.85; 1105.000;   70.750;15167.250; 1.16425
1126.96; 1102.000;   61.750;15350.250; 1.16723
1131.07; 1123.000;   57.750;15457.250; 1.16006
1135.18; 1092.000;   63.750;15545.250; 1.17771
1139.29; 1056.000;   45.750;15604.250; 1.18754
1143.39; 1052.000;   62.750;15613.250; 1.19644
1147.49; 1028.000;   71.750;15592.250; 1.21033
1151.59; 1015.000;   71.750;15618.250; 1.21701
1155.69;  991.000;   64.750;15618.250; 1.22510
1159.78;  977.000;   61.750;15619.250; 1.23040
1163.88;  981.000;   66.750;15654.250; 1.23171
1167.97;  969.000;   60.750;15657.250; 1.23482
1172.06;  957.000;   60.750;15668.250; 1.24090
1176.15;  965.000;   53.750;15670.250; 1.23395
1180.23;  966.000;   59.750;15679.250; 1.23642
1184.32;  936.000;   50.750;15690.250; 1.24716
1188.40;  948.000;   57.750;15712.250; 1.24513
1192.48;  956.000;   55.750;15725.250; 1.24069
1196.56;  952.000;   53.750;15754.250; 1.24252
1200.64;  964.000;   72.750;15783.250; 1.24619
1204.71;  943.000;   50.750;15806.250; 1.24695
1208.78;  973.000;   69.750;15849.250; 1.24229
1212.85;  963.000;   54.750;15854.250; 1.24044
1216.92;  953.000;   37.750;15840.250; 1.23719
1220.99;  975.000;   49.750;15897.250; 1.23370
1225.05;  983.000;   60.750;15920.250; 1.23544
1229.11;  972.000;   53.750;15924.250; 1.23763
1233.17;  997.000;   58.750;15926.250; 1.22819
1237.23;  990.000;   49.750;15943.250; 1.22798
1241.29;  989.000;   51.750;15960.250; 1.22977
1245.34; 1005.000;   79.750;16029.250; 1.23649
1249.39; 1003.000;   55.750;16081.250; 1.22835
1253.44; 1000.000;   36.750;16122.250; 1.22270
1257.49; 1020.000;   73.750;16225.250; 1.23221
1261.53; 1018.000;   40.750;16273.250; 1.22038
1265.58; 1026.000;   46.750;16338.250; 1.22107
1269.62; 1017.000;   46.750;16412.250; 1.22705
1273.65; 1027.000;   55.750;16472.250; 1.22795
1277.69; 1043.000;   53.750;16552.250; 1.22214
1281.72; 1040.000;   65.750;16612.250; 1.23004
1285.76; 1038.000;   66.750;16662.250; 1.23266
1289.79; 1022.000;   56.750;16697.250; 1.23653
1293.81; 1025.000;   44.750;16713.250; 1.23056
1297.84; 1011.000;   49.750;16765.250; 1.24028
1301.86; 1017.000;   43.750;16807.250; 1.23614
1305.88; 1004.000;   58.750;16824.250; 1.24887
1309.90; 1000.000;   49.750;16842.250; 1.24728
1313.92;  978.000;   55.750;16828.250; 1.25975
1317.93;  967.000;   65.750;16838.250; 1.26975
1321.94;  952.000;   46.750;16825.250; 1.26798
1325.95;  931.000;   64.750;16797.250; 1.28592
1329.96;  911.000;   63.750;16802.250; 1.29570
1333.96;  890.000;   52.750;16773.250; 1.30039
1337.96;  859.000;   63.750;16776.250; 1.32254
1341.96;  835.000;   46.750;16748.250; 1.32609
1345.96;  815.000;   59.750;16622.250; 1.34104
1349.95;  783.000;   42.750;16410.250; 1.34460
1353.95;  760.000;   67.750;16154.250; 1.36620
1357.94;  715.000;   50.750;15843.250; 1.37612
1361.92;  703.000;   50.750;15571.250; 1.37649
1365.91;  659.000;   46.750;15308.250; 1.39667
1369.89;  635.000;   50.750;15042.250; 1.40925
1373.87;  591.000;   48.750;14460.250; 1.42451
1377.85;  519.000;   60.750;13607.250; 1.47072
1381.82;  459.000;   48.750;12795.250; 1.49234
1385.80;  399.000;   50.750;12441.250; 1.55120
1389.77;  345.000;   54.750;12376.250; 1.62789
1393.74;  303.000;   63.750;12523.250; 1.71665
1397.70;  257.000;   57.750;12861.250; 1.80793
1401.66;  221.000;   57.750;13177.250; 1.90506
1405.62;  193.000;   34.750;13448.250; 1.92820
1409.58;  166.000;   50.750;13653.250; 2.07198
1413.54;  151.000;   50.750;13787.250; 2.13679
1417.49;  126.000;   27.750;13838.250; 2.14788
1421.44;  144.000;   63.750;13894.250; 2.23639
1425.39;  138.000;   54.750;13879.250; 2.22027
1429.33;  146.000;   64.750;13864.250; 2.23004
1433.27;  123.000;   54.750;13809.250; 2.30434
1437.21;  118.000;   48.750;13776.250; 2.29717
1441.15;  137.000;   52.750;13748.250; 2.21101
1445.09;  122.000;   60.750;13691.250; 2.34741
1449.02;  118.000;   57.750;13611.250; 2.35209
1452.95;  109.000;   52.750;13536.250; 2.37968
1456.87;  110.000;   53.750;13439.250; 2.37651
1460.80;  102.000;   43.750;13345.250; 2.35860
1464.72;  110.000;   59.750;13253.250; 2.41922
1468.64;  102.000;   43.750;13131.250; 2.35156
1472.55;  110.000;   63.750;13051.250; 2.44841
1476.47;  112.000;   43.750;12969.250; 2.27734
1480.38;  114.000;   38.750;12870.250; 2.23177
1484.28;  132.000;   54.750;12750.250; 2.21575
1488.19;  118.000;   50.750;12663.250; 2.27311
1492.09;  120.000;   28.750;12533.250; 2.13683
1495.99;  153.000;   58.750;12434.250; 2.11828
1499.89;  140.000;   46.750;12320.250; 2.11932
1503.78;  133.000;   48.750;12228.250; 2.16006
1507.67;  172.000;   52.750;12113.250; 2.00491
1511.56;  151.000;   33.750;11982.250; 2.00820
1515.44;  150.000;   50.750;11884.250; 2.07638
1519.33;  173.000;   48.750;11757.250; 1.97420
1523.21;  170.000;   35.750;11649.250; 1.93705
1527.08;  177.000;   57.750;11506.250; 1.98229
1530.96;  179.000;   39.750;11368.250; 1.91038
1534.83;  206.000;   52.750;11249.250; 1.86368
1538.70;  190.000;   57.750;11082.250; 1.92096
1542.56;  182.000;   28.750;10958.250; 1.85320
1546.42;  206.000;   39.750;10836.250; 1.81252
1550.28;  217.000;   58.750;10683.250; 1.82696
1554.14;  206.000;   39.750;10510.250; 1.79921
1557.99;  198.000;   41.750;10388.250; 1.82097
1561.84;  220.000;   33.750;10234.250; 1.73853
1565.69;  226.000;   40.750;10095.250; 1.73460
1569.54;  228.000;   24.750; 9939.250; 1.68824
1573.38;  228.000;   40.750; 9804.250; 1.71718
1577.22;  228.000;   31.750; 9649.250; 1.69025
1581.05;  235.000;   49.750; 9522.250; 1.70871
1584.89;  248.000;   45.750; 9369.250; 1.66369
1588.72;  239.000;   41.750; 9215.250; 1.66752
1592.54;  223.000;   35.750; 9061.250; 1.68305
1596.37;  233.000;   22.750; 8908.250; 1.62595
1600.19;  241.000;   43.750; 8774.250; 1.64602
1604.01;  231.000;   33.750; 8610.250; 1.63829
1607.82;  227.000;   31.750; 8473.250; 1.63583
1611.63;  233.000;   22.750; 8316.250; 1.59600
1615.44;  240.000;   26.750; 8167.250; 1.58176
1619.25;  226.000;   34.750; 7998.250; 1.61950
1623.05;  229.000;   13.750; 7822.250; 1.55962
1626.85;  243.000;   26.750; 7668.250; 1.54822
1630.64;  242.000;   42.750; 7511.250; 1.57384
1634.44;  233.000;   26.750; 7307.250; 1.54777
1638.23;  214.000;   18.750; 7114.250; 1.56039
1642.01;  230.000;   39.750; 6938.250; 1.55943
1645.80;  231.000;   42.750; 6743.250; 1.55137
1649.58;  218.000;   38.750; 6531.250; 1.55895
1653.35;  232.000;   44.750; 6309.250; 1.52446
1657.13;  202.000;   36.750; 6064.250; 1.56200
1660.90;  200.000;   34.750; 5808.250; 1.54330
1664.67;  185.000;   28.750; 5491.250; 1.54357
1668.43;  198.000;   24.750; 5119.250; 1.46843
1672.19;  181.000;   35.750; 4656.250; 1.50257
1675.95;  154.000;   31.750; 4113.250; 1.52357
1679.70;  143.000;   46.750; 3563.250; 1.56271
1683.46;  140.000;   23.750; 3047.250; 1.41512
1687.20;  134.000;   39.750; 2617.250; 1.43692
1690.95;  120.000;   36.750; 2243.250; 1.42332
1694.69;  110.000;   56.750; 1964.250; 1.55414
1698.43;   93.000;   22.750; 1699.250; 1.37776
1702.16;   95.000;   44.750; 1533.250; 1.47161
1705.89;   90.000;   30.750; 1372.250; 1.35490
1709.62;   97.000;   25.750; 1277.250; 1.24465
1713.35;   86.000;   17.750; 1187.250; 1.23390
1717.07;   94.000;   42.750; 1123.250; 1.32393
1720.79;   95.000;   41.750; 1064.250; 1.28334
1724.50;   94.000;   44.750; 1019.250; 1.29638
1728.21;   92.000;   29.750;  974.250; 1.18106
1731.92;   86.000;   25.750;  931.250; 1.17693
1735.63;  100.000;   34.750;  925.250; 1.13505
1739.33;   83.000;   23.750;  909.250; 1.17450
1743.02;   88.000;   21.750;  865.250; 1.10490
1746.72;   91.000;   33.750;  872.250; 1.16573
1750.41;  102.000;   37.750;  865.250; 1.10989
1754.10;   87.000;   44.750;  846.250; 1.27808

