
Integration time [ms]:   3.780
Averaging Nr. [scans]: 1
Smoothing Nr. [pixels]: 0
Data measured with spectrometer [name]: 1911294U1
Wave   ;Sample   ;Dark     ;Reference;Absorbance
[nm]   ;[counts] ;[counts] ;[counts] ;[A.U]

 860.61;  122.000;   67.750;  833.250; 1.14955
 864.82;  135.000;   49.750;  998.250; 1.04634
 869.02;  160.000;   59.750; 1169.250; 1.04404
 873.23;  157.000;   54.750; 1288.250; 1.08148
 877.43;  164.000;   53.750; 1415.250; 1.09164
 881.63;  192.000;   54.750; 1540.250; 1.03436
 885.83;  192.000;   49.750; 1684.250; 1.06033
 890.03;  195.000;   28.750; 1796.250; 1.02660
 894.23;  211.000;   40.750; 1929.250; 1.04503
 898.42;  213.000;   37.750; 2071.250; 1.06459
 902.62;  237.000;   56.750; 2213.250; 1.07787
 906.81;  253.000;   35.750; 2337.250; 1.02505
 911.00;  254.000;   53.750; 2523.250; 1.09104
 915.19;  282.000;   45.750; 2712.250; 1.05257
 919.38;  309.000;   47.750; 2963.250; 1.04766
 923.57;  345.000;   53.750; 3292.250; 1.04608
 927.76;  365.000;   40.750; 3728.250; 1.05585
 931.94;  414.000;   39.750; 4163.250; 1.04210
 936.13;  446.000;   53.750; 4579.250; 1.06210
 940.31;  467.000;   50.750; 4873.250; 1.06392
 944.49;  507.000;   63.750; 5167.250; 1.06122
 948.67;  503.000;   49.750; 5411.250; 1.07295
 952.85;  528.000;   50.750; 5679.250; 1.07165
 957.03;  550.000;   47.750; 5965.250; 1.07122
 961.21;  562.000;   58.750; 6236.250; 1.08903
 965.38;  578.000;   44.750; 6471.250; 1.08104
 969.55;  598.000;   37.750; 6719.250; 1.07649
 973.73;  621.000;   56.750; 6971.250; 1.08829
 977.90;  636.000;   42.750; 7222.250; 1.08286
 982.06;  662.000;   44.750; 7469.250; 1.08021
 986.23;  674.000;   51.750; 7739.250; 1.09182
 990.40;  712.000;   61.750; 7985.250; 1.08584
 994.56;  723.000;   65.750; 8243.250; 1.09489
 998.72;  747.000;   58.750; 8450.250; 1.08609
1002.88;  758.000;   57.750; 8670.250; 1.08988
1007.04;  778.000;   52.750; 8879.250; 1.08530
1011.20;  793.000;   49.750; 9068.250; 1.08400
1015.36;  806.000;   45.750; 9257.250; 1.08337
1019.51;  822.000;   60.750; 9402.250; 1.08889
1023.67;  850.000;   69.750; 9574.250; 1.08570
1027.82;  850.000;   61.750; 9729.250; 1.08865
1031.97;  867.000;   55.750; 9851.250; 1.08187
1036.12;  872.000;   49.750;10022.250; 1.08380
1040.27;  904.000;   61.750;10174.250; 1.07942
1044.41;  906.000;   73.750;10320.250; 1.09032
1048.56;  932.000;   53.750;10468.250; 1.07402
1052.70;  932.000;   58.750;10629.250; 1.08296
1056.84;  951.000;   47.750;10798.250; 1.07562
1060.98;  969.000;   67.750;10996.250; 1.08372
1065.11;  974.000;   63.750;11181.250; 1.08685
1069.25;  999.000;   63.750;11391.250; 1.08321
1073.38; 1025.000;   56.750;11632.250; 1.07755
1077.52; 1054.000;   70.750;11862.250; 1.07891
1081.65; 1053.000;   62.750;12105.250; 1.08497
1085.77; 1064.000;   60.750;12352.250; 1.08820
1089.90; 1092.000;   56.750;12603.250; 1.08348
1094.03; 1111.000;   65.750;12857.250; 1.08770
1098.15; 1148.000;   68.750;13146.250; 1.08340
1102.27; 1135.000;   66.750;13436.250; 1.09744
1106.39; 1185.000;   69.750;13733.250; 1.08819
1110.51; 1201.000;   69.750;14055.250; 1.09212
1114.63; 1210.000;   49.750;14464.250; 1.09425
1118.74; 1253.000;   73.750;14874.250; 1.09867
1122.85; 1272.000;   70.750;15167.250; 1.09924
1126.96; 1263.000;   61.750;15350.250; 1.10473
1131.07; 1283.000;   57.750;15457.250; 1.09928
1135.18; 1244.000;   63.750;15545.250; 1.11784
1139.29; 1237.000;   45.750;15604.250; 1.11596
1143.39; 1217.000;   62.750;15613.250; 1.12944
1147.49; 1200.000;   71.750;15592.250; 1.13850
1151.59; 1168.000;   71.750;15618.250; 1.15172
1155.69; 1147.000;   64.750;15618.250; 1.15750
1159.78; 1137.000;   61.750;15619.250; 1.16043
1163.88; 1145.000;   66.750;15654.250; 1.16006
1167.97; 1121.000;   60.750;15657.250; 1.16762
1172.06; 1107.000;   60.750;15668.250; 1.17370
1176.15; 1096.000;   53.750;15670.250; 1.17561
1180.23; 1099.000;   59.750;15679.250; 1.17695
1184.32; 1079.000;   50.750;15690.250; 1.18212
1188.40; 1089.000;   57.750;15712.250; 1.18128
1192.48; 1086.000;   55.750;15725.250; 1.18211
1196.56; 1095.000;   53.750;15754.250; 1.17836
1200.64; 1108.000;   72.750;15783.250; 1.18114
1204.71; 1096.000;   50.750;15806.250; 1.17821
1208.78; 1109.000;   69.750;15849.250; 1.18137
1212.85; 1112.000;   54.750;15854.250; 1.17447
1216.92; 1080.000;   37.750;15840.250; 1.18075
1220.99; 1111.000;   49.750;15897.250; 1.17414
1225.05; 1133.000;   60.750;15920.250; 1.16999
1229.11; 1131.000;   53.750;15924.250; 1.16827
1233.17; 1127.000;   58.750;15926.250; 1.17184
1237.23; 1133.000;   49.750;15943.250; 1.16649
1241.29; 1132.000;   51.750;15960.250; 1.16810
1245.34; 1155.000;   79.750;16029.250; 1.17124
1249.39; 1144.000;   55.750;16081.250; 1.16808
1253.44; 1148.000;   36.750;16122.250; 1.16062
1257.49; 1159.000;   73.750;16225.250; 1.17268
1261.53; 1155.000;   40.750;16273.250; 1.16340
1265.58; 1168.000;   46.750;16338.250; 1.16226
1269.62; 1171.000;   46.750;16412.250; 1.16307
1273.65; 1157.000;   55.750;16472.250; 1.17339
1277.69; 1172.000;   53.750;16552.250; 1.16891
1281.72; 1176.000;   65.750;16612.250; 1.17329
1285.76; 1177.000;   66.750;16662.250; 1.17457
1289.79; 1160.000;   56.750;16697.250; 1.17849
1293.81; 1151.000;   44.750;16713.250; 1.17804
1297.84; 1143.000;   49.750;16765.250; 1.18440
1301.86; 1141.000;   43.750;16807.250; 1.18406
1305.88; 1137.000;   58.750;16824.250; 1.19170
1309.90; 1119.000;   49.750;16842.250; 1.19604
1313.92; 1108.000;   55.750;16828.250; 1.20248
1317.93; 1098.000;   65.750;16838.250; 1.21081
1321.94; 1061.000;   46.750;16825.250; 1.21861
1325.95; 1029.000;   64.750;16797.250; 1.23937
1329.96; 1038.000;   63.750;16802.250; 1.23505
1333.96; 1009.000;   52.750;16773.250; 1.24268
1337.96;  960.000;   63.750;16776.250; 1.27061
1341.96;  933.000;   46.750;16748.250; 1.27520
1345.96;  921.000;   59.750;16622.250; 1.28400
1349.95;  882.000;   42.750;16410.250; 1.29009
1353.95;  845.000;   67.750;16154.250; 1.31590
1357.94;  829.000;   50.750;15843.250; 1.30733
1361.92;  791.000;   50.750;15571.250; 1.32153
1365.91;  749.000;   46.750;15308.250; 1.33711
1369.89;  698.000;   50.750;15042.250; 1.36477
1373.87;  657.000;   48.750;14460.250; 1.37463
1377.85;  573.000;   60.750;13607.250; 1.42235
1381.82;  498.000;   48.750;12795.250; 1.45290
1385.80;  447.000;   50.750;12441.250; 1.49512
1389.77;  376.000;   54.750;12376.250; 1.58382
1393.74;  327.000;   63.750;12523.250; 1.67513
1397.70;  297.000;   57.750;12861.250; 1.72848
1401.66;  240.000;   57.750;13177.250; 1.85725
1405.62;  206.000;   34.750;13448.250; 1.89391
1409.58;  175.000;   50.750;13653.250; 2.03932
1413.54;  168.000;   50.750;13787.250; 2.06876
1417.49;  137.000;   27.750;13838.250; 2.10179
1421.44;  129.000;   63.750;13894.250; 2.32626
1425.39;  132.000;   54.750;13879.250; 2.25275
1429.33;  130.000;   64.750;13864.250; 2.32528
1433.27;  113.000;   54.750;13809.250; 2.37315
1437.21;  119.000;   48.750;13776.250; 2.29095
1441.15;  117.000;   52.750;13748.250; 2.32870
1445.09;  113.000;   60.750;13691.250; 2.41643
1449.02;  108.000;   57.750;13611.250; 2.43092
1452.95;  109.000;   52.750;13536.250; 2.37968
1456.87;  106.000;   53.750;13439.250; 2.40855
1460.80;  107.000;   43.750;13345.250; 2.32284
1464.72;  113.000;   59.750;13253.250; 2.39404
1468.64;  101.000;   43.750;13131.250; 2.35908
1472.55;  115.000;   63.750;13051.250; 2.40383
1476.47;  120.000;   43.750;12969.250; 2.22921
1480.38;  120.000;   38.750;12870.250; 2.19845
1484.28;  127.000;   54.750;12750.250; 2.24481
1488.19;  125.000;   50.750;12663.250; 2.23010
1492.09;  104.000;   28.750;12533.250; 2.22056
1495.99;  127.000;   58.750;12434.250; 2.25846
1499.89;  129.000;   46.750;12320.250; 2.17383
1503.78;  142.000;   48.750;12228.250; 2.11598
1507.67;  143.000;   52.750;12113.250; 2.12592
1511.56;  133.000;   33.750;11982.250; 2.08058
1515.44;  154.000;   50.750;11884.250; 2.05922
1519.33;  157.000;   48.750;11757.250; 2.03407
1523.21;  162.000;   35.750;11649.250; 1.96373
1527.08;  178.000;   57.750;11506.250; 1.97866
1530.96;  177.000;   39.750;11368.250; 1.91666
1534.83;  198.000;   52.750;11249.250; 1.88697
1538.70;  185.000;   57.750;11082.250; 1.93770
1542.56;  182.000;   28.750;10958.250; 1.85320
1546.42;  194.000;   39.750;10836.250; 1.84506
1550.28;  213.000;   58.750;10683.250; 1.83808
1554.14;  194.000;   39.750;10510.250; 1.83174
1557.99;  217.000;   41.750;10388.250; 1.77114
1561.84;  220.000;   33.750;10234.250; 1.73853
1565.69;  212.000;   40.750;10095.250; 1.76873
1569.54;  221.000;   24.750; 9939.250; 1.70346
1573.38;  220.000;   40.750; 9804.250; 1.73615
1577.22;  229.000;   31.750; 9649.250; 1.68805
1581.05;  237.000;   49.750; 9522.250; 1.70404
1584.89;  237.000;   45.750; 9369.250; 1.68798
1588.72;  243.000;   41.750; 9215.250; 1.65880
1592.54;  225.000;   35.750; 9061.250; 1.67844
1596.37;  233.000;   22.750; 8908.250; 1.62595
1600.19;  241.000;   43.750; 8774.250; 1.64602
1604.01;  231.000;   33.750; 8610.250; 1.63829
1607.82;  230.000;   31.750; 8473.250; 1.62921
1611.63;  229.000;   22.750; 8316.250; 1.60434
1615.44;  241.000;   26.750; 8167.250; 1.57973
1619.25;  225.000;   34.750; 7998.250; 1.62178
1623.05;  234.000;   13.750; 7822.250; 1.54965
1626.85;  226.000;   26.750; 7668.250; 1.58378
1630.64;  245.000;   42.750; 7511.250; 1.56734
1634.44;  229.000;   26.750; 7307.250; 1.55627
1638.23;  229.000;   18.750; 7114.250; 1.52825
1642.01;  234.000;   39.750; 6938.250; 1.55039
1645.80;  244.000;   42.750; 6743.250; 1.52237
1649.58;  227.000;   38.750; 6531.250; 1.53768
1653.35;  233.000;   44.750; 6309.250; 1.52215
1657.13;  201.000;   36.750; 6064.250; 1.56463
1660.90;  208.000;   34.750; 5808.250; 1.52277
1664.67;  185.000;   28.750; 5491.250; 1.54357
1668.43;  188.000;   24.750; 5119.250; 1.49425
1672.19;  175.000;   35.750; 4656.250; 1.52089
1675.95;  149.000;   31.750; 4113.250; 1.54171
1679.70;  157.000;   46.750; 3563.250; 1.50373
1683.46;  135.000;   23.750; 3047.250; 1.43421
1687.20;  135.000;   39.750; 2617.250; 1.43233
1690.95;  110.000;   36.750; 2243.250; 1.47890
1694.69;  117.000;   56.750; 1964.250; 1.50051
1698.43;  107.000;   22.750; 1699.250; 1.29883
1702.16;   94.000;   44.750; 1533.250; 1.48034
1705.89;   78.000;   30.750; 1372.250; 1.45319
1709.62;   90.000;   25.750; 1277.250; 1.28956
1713.35;   93.000;   17.750; 1187.250; 1.19149
1717.07;  102.000;   42.750; 1123.250; 1.26094
1720.79;   98.000;   41.750; 1064.250; 1.25954
1724.50;   94.000;   44.750; 1019.250; 1.29638
1728.21;  104.000;   29.750;  974.250; 1.10451
1731.92;   95.000;   25.750;  931.250; 1.11647
1735.63;   90.000;   34.750;  925.250; 1.20730
1739.33;  104.000;   23.750;  909.250; 1.04274
1743.02;  102.000;   21.750;  865.250; 1.02164
1746.72;  101.000;   33.750;  872.250; 1.09581
1750.41;   96.000;   37.750;  865.250; 1.15247
1754.10;  102.000;   44.750;  846.250; 1.14613

