
Integration time [ms]:  10.000
Averaging Nr. [scans]: 10
Smoothing Nr. [pixels]: 0
Data measured with spectrometer [name]: 1911294U1
Wave   ;Sample   ;Dark     ;Reference;Absorbance
[nm]   ;[counts] ;[counts] ;[counts] ;[A.U]

 860.61; 1630.500; 1551.700; 1907.800; 0.65505
 864.82; 1577.400; 1505.600; 1955.500; 0.79699
 869.02; 1593.700; 1514.900; 2034.000; 0.81872
 873.23; 1616.200; 1530.300; 2122.800; 0.83870
 877.43; 1574.700; 1494.800; 2149.500; 0.91350
 881.63; 1616.900; 1530.800; 2256.000; 0.92545
 885.83; 1592.400; 1499.600; 2300.600; 0.93608
 890.03; 1589.400; 1501.000; 2363.200; 0.98916
 894.23; 1597.800; 1498.400; 2434.200; 0.97380
 898.42; 1586.100; 1490.200; 2489.500; 1.01788
 902.62; 1627.200; 1522.400; 2605.100; 1.01415
 906.81; 1594.000; 1488.700; 2644.500; 1.04045
 911.00; 1602.500; 1494.400; 2732.000; 1.05875
 915.19; 1615.500; 1503.000; 2840.700; 1.07521
 919.38; 1659.800; 1541.400; 2988.000; 1.08700
 923.57; 1594.500; 1477.600; 3060.100; 1.13153
 927.76; 1646.100; 1511.200; 3297.300; 1.12189
 931.94; 1635.500; 1493.300; 3511.600; 1.15209
 936.13; 1662.700; 1516.000; 3764.700; 1.18550
 940.31; 1640.400; 1484.900; 3931.100; 1.19676
 944.49; 1715.500; 1547.000; 4163.000; 1.19104
 948.67; 1692.900; 1518.900; 4297.000; 1.20320
 952.85; 1668.500; 1493.400; 4427.000; 1.22411
 957.03; 1683.400; 1501.100; 4604.000; 1.23098
 961.21; 1710.100; 1518.200; 4778.500; 1.23018
 965.38; 1709.500; 1507.600; 4921.400; 1.22810
 969.55; 1702.700; 1505.800; 5072.200; 1.25798
 973.73; 1731.600; 1520.500; 5253.800; 1.24760
 977.90; 1726.400; 1511.100; 5413.200; 1.25825
 982.06; 1742.700; 1518.800; 5592.700; 1.25996
 986.23; 1734.900; 1506.000; 5748.000; 1.26792
 990.40; 1755.300; 1519.400; 5941.100; 1.27286
 994.56; 1789.000; 1538.400; 6129.700; 1.26295
 998.72; 1794.000; 1541.900; 6290.500; 1.27499
1002.88; 1766.600; 1510.200; 6415.300; 1.28173
1007.04; 1787.900; 1529.400; 6579.000; 1.29080
1011.20; 1791.200; 1519.900; 6717.500; 1.28235
1015.36; 1819.600; 1543.200; 6867.300; 1.28471
1019.51; 1783.800; 1510.000; 6947.400; 1.29796
1023.67; 1807.500; 1530.900; 7080.200; 1.30239
1027.82; 1800.200; 1512.800; 7172.800; 1.29433
1031.97; 1814.300; 1525.500; 7291.600; 1.30028
1036.12; 1813.400; 1523.900; 7384.200; 1.30627
1040.27; 1816.200; 1520.100; 7490.500; 1.30457
1044.41; 1823.300; 1522.700; 7585.300; 1.30467
1048.56; 1841.100; 1534.900; 7704.000; 1.30422
1052.70; 1826.400; 1519.500; 7789.500; 1.31027
1056.84; 1836.000; 1529.400; 7905.400; 1.31798
1060.98; 1812.100; 1501.100; 7985.000; 1.31908
1065.11; 1834.900; 1513.900; 8119.500; 1.31341
1069.25; 1851.700; 1526.700; 8264.000; 1.31660
1073.38; 1863.000; 1527.800; 8408.100; 1.31230
1077.52; 1884.900; 1546.500; 8548.800; 1.31581
1081.65; 1874.900; 1532.900; 8683.900; 1.32034
1085.77; 1873.300; 1527.000; 8829.600; 1.32403
1089.90; 1889.700; 1533.700; 8986.900; 1.32089
1094.03; 1860.300; 1500.400; 9113.600; 1.32539
1098.15; 1912.500; 1546.400; 9322.700; 1.32717
1102.27; 1861.200; 1489.800; 9441.600; 1.33062
1106.39; 1905.800; 1527.600; 9661.400; 1.33257
1110.51; 1942.900; 1551.400; 9878.200; 1.32775
1114.63; 1900.300; 1500.800;10067.700; 1.33131
1118.74; 1969.400; 1553.000;10360.700; 1.32535
1122.85; 1945.300; 1530.700;10522.800; 1.33623
1126.96; 1925.100; 1503.600;10642.400; 1.33609
1131.07; 1989.000; 1554.700;10786.500; 1.32750
1135.18; 1928.800; 1504.600;10802.100; 1.34080
1139.29; 1945.500; 1516.000;10868.600; 1.33797
1143.39; 1974.800; 1538.200;10912.400; 1.33185
1147.49; 1945.900; 1518.500;10897.900; 1.34134
1151.59; 1947.000; 1515.000;10914.000; 1.33760
1155.69; 1978.900; 1541.600;10966.800; 1.33351
1159.78; 1937.100; 1502.700;10951.200; 1.33747
1163.88; 1977.900; 1536.300;11019.900; 1.33194
1167.97; 1977.400; 1537.000;11049.100; 1.33443
1172.06; 1956.200; 1514.600;11052.300; 1.33441
1176.15; 1956.500; 1511.400;11073.900; 1.33211
1180.23; 1994.800; 1549.600;11155.900; 1.33400
1184.32; 1944.600; 1494.700;11140.100; 1.33120
1188.40; 1964.200; 1514.000;11201.700; 1.33282
1192.48; 1966.100; 1515.300;11260.500; 1.33481
1196.56; 1972.900; 1521.200;11309.800; 1.33587
1200.64; 1994.600; 1534.600;11380.300; 1.33049
1204.71; 1970.900; 1514.200;11415.100; 1.33604
1208.78; 1982.400; 1522.400;11476.100; 1.33523
1212.85; 2006.400; 1547.900;11559.600; 1.33917
1216.92; 1932.200; 1476.200;11533.500; 1.34352
1220.99; 1999.200; 1534.300;11668.800; 1.33844
1225.05; 1997.700; 1527.500;11719.100; 1.33596
1229.11; 1970.400; 1506.200;11777.200; 1.34491
1233.17; 2014.200; 1537.300;11867.500; 1.33568
1237.23; 2015.500; 1535.100;11935.000; 1.33543
1241.29; 2007.500; 1531.200;11992.800; 1.34172
1245.34; 2046.100; 1560.000;12107.000; 1.33640
1249.39; 1976.800; 1500.000;12117.900; 1.34770
1253.44; 2005.300; 1518.900;12212.500; 1.34213
1257.49; 2045.700; 1552.800;12334.500; 1.33993
1261.53; 2014.700; 1518.900;12369.900; 1.34016
1265.58; 2024.400; 1525.900;12452.600; 1.34082
1269.62; 2017.000; 1519.600;12529.800; 1.34509
1273.65; 2026.400; 1519.900;12603.400; 1.34010
1277.69; 2017.900; 1518.000;12681.800; 1.34893
1281.72; 2042.300; 1530.100;12773.400; 1.34145
1285.76; 2041.700; 1529.900;12851.500; 1.34481
1289.79; 2036.600; 1520.800;12909.400; 1.34399
1293.81; 2030.200; 1511.100;12974.600; 1.34407
1297.84; 2007.300; 1490.200;13004.900; 1.34768
1301.86; 2072.000; 1546.100;13137.300; 1.34323
1305.88; 2040.100; 1520.800;13163.800; 1.35065
1309.90; 2068.800; 1541.300;13243.300; 1.34604
1313.92; 2025.700; 1497.800;13236.900; 1.34708
1317.93; 2058.200; 1527.400;13321.700; 1.34674
1321.94; 2046.000; 1516.400;13349.300; 1.34914
1325.95; 2047.600; 1515.800;13392.300; 1.34894
1329.96; 2069.300; 1527.200;13449.200; 1.34227
1333.96; 2060.700; 1523.500;13501.700; 1.34826
1337.96; 2064.300; 1525.700;13575.100; 1.34970
1341.96; 2077.400; 1530.100;13604.900; 1.34365
1345.96; 2052.600; 1514.800;13535.100; 1.34929
1349.95; 2031.900; 1504.900;13357.000; 1.35198
1353.95; 2013.100; 1500.800;13080.300; 1.35417
1357.94; 2021.500; 1519.000;12810.900; 1.35163
1361.92; 2012.500; 1525.200;12577.700; 1.35566
1365.91; 1991.100; 1509.100;12495.800; 1.35782
1369.89; 1984.300; 1500.900;12522.200; 1.35793
1373.87; 1975.500; 1483.400;12502.700; 1.35010
1377.85; 2024.900; 1541.800;12256.400; 1.34594
1381.82; 1950.300; 1495.800;11839.800; 1.35715
1385.80; 2003.400; 1542.900;11856.600; 1.35018
1389.77; 1990.400; 1524.900;11869.500; 1.34679
1393.74; 1966.900; 1509.900;11804.200; 1.35268
1397.70; 2018.100; 1552.300;11918.000; 1.34740
1401.66; 1991.500; 1522.100;11986.800; 1.34818
1405.62; 1971.900; 1502.000;12055.500; 1.35139
1409.58; 2008.600; 1528.700;12203.600; 1.34721
1413.54; 2002.700; 1519.400;12293.200; 1.34815
1417.49; 1961.500; 1476.800;12292.900; 1.34860
1421.44; 2008.900; 1523.100;12384.600; 1.34943
1425.39; 1994.700; 1510.500;12382.800; 1.35130
1429.33; 2020.300; 1525.700;12395.900; 1.34198
1433.27; 2010.700; 1523.700;12370.200; 1.34776
1437.21; 1989.800; 1502.800;12323.500; 1.34673
1441.15; 2031.700; 1543.700;12339.600; 1.34484
1445.09; 2016.300; 1531.000;12292.800; 1.34587
1449.02; 1971.400; 1489.700;12200.500; 1.34705
1452.95; 2018.200; 1529.700;12230.100; 1.34054
1456.87; 2010.000; 1524.100;12175.900; 1.34088
1460.80; 1994.000; 1510.600;12112.200; 1.34106
1464.72; 1983.200; 1502.500;12023.800; 1.34020
1468.64; 1978.200; 1502.300;11961.600; 1.34199
1472.55; 1993.100; 1518.100;11913.700; 1.34016
1476.47; 2001.900; 1531.300;11884.300; 1.34241
1480.38; 1990.800; 1517.300;11801.000; 1.33683
1484.28; 2007.100; 1535.000;11762.600; 1.33574
1488.19; 1984.500; 1522.200;11690.100; 1.34231
1492.09; 1957.400; 1489.900;11596.700; 1.33483
1495.99; 1968.500; 1506.600;11539.600; 1.33688
1499.89; 1974.600; 1513.300;11504.200; 1.33562
1503.78; 1972.800; 1515.200;11427.600; 1.33569
1507.67; 1996.300; 1539.800;11381.400; 1.33362
1511.56; 1946.800; 1498.300;11268.800; 1.33815
1515.44; 1980.200; 1525.700;11237.600; 1.32977
1519.33; 1958.800; 1515.200;11135.600; 1.33620
1523.21; 1967.300; 1523.900;11078.700; 1.33343
1527.08; 1955.400; 1519.400;10990.300; 1.33690
1530.96; 1939.600; 1500.300;10886.000; 1.32971
1534.83; 1983.200; 1544.300;10845.200; 1.32616
1538.70; 1932.500; 1508.600;10715.900; 1.33687
1542.56; 1919.900; 1500.900;10619.900; 1.33773
1546.42; 1942.600; 1517.300;10554.500; 1.32734
1550.28; 1930.800; 1513.400;10453.100; 1.33077
1554.14; 1927.800; 1508.800;10345.500; 1.32408
1557.99; 1936.100; 1525.700;10266.900; 1.32836
1561.84; 1900.100; 1498.400;10122.900; 1.33183
1565.69; 1916.200; 1516.200;10052.800; 1.32922
1569.54; 1903.400; 1503.300; 9933.900; 1.32369
1573.38; 1899.400; 1501.700; 9824.400; 1.32071
1577.22; 1920.200; 1527.000; 9752.100; 1.32053
1581.05; 1897.800; 1512.400; 9625.200; 1.32326
1584.89; 1906.500; 1524.900; 9522.100; 1.32133
1588.72; 1894.200; 1517.700; 9409.100; 1.32139
1592.54; 1873.200; 1506.200; 9274.600; 1.32567
1596.37; 1891.200; 1517.200; 9177.600; 1.31138
1600.19; 1872.800; 1510.100; 9050.400; 1.31784
1604.01; 1844.700; 1486.400; 8899.400; 1.31575
1607.82; 1856.100; 1509.800; 8796.900; 1.32310
1611.63; 1830.000; 1480.100; 8624.900; 1.31005
1615.44; 1898.200; 1553.300; 8575.400; 1.30877
1619.25; 1819.700; 1486.200; 8361.300; 1.31418
1623.05; 1810.300; 1479.000; 8208.600; 1.30777
1626.85; 1840.500; 1513.000; 8103.300; 1.30369
1630.64; 1849.400; 1524.000; 7969.700; 1.29685
1634.44; 1815.300; 1504.600; 7800.200; 1.30670
1638.23; 1812.300; 1503.300; 7652.600; 1.29887
1642.01; 1804.900; 1506.800; 7500.000; 1.30330
1645.80; 1798.900; 1499.800; 7336.400; 1.29034
1649.58; 1797.000; 1507.600; 7165.100; 1.29113
1653.35; 1838.900; 1554.000; 7043.000; 1.28480
1657.13; 1756.500; 1486.500; 6816.300; 1.29535
1660.90; 1766.600; 1500.200; 6658.700; 1.28699
1664.67; 1746.800; 1492.900; 6464.500; 1.29183
1668.43; 1757.700; 1506.200; 6271.300; 1.27753
1672.19; 1764.600; 1522.100; 6011.600; 1.26749
1675.95; 1716.400; 1493.800; 5613.400; 1.26733
1679.70; 1745.900; 1530.900; 5235.900; 1.23635
1683.46; 1692.000; 1497.800; 4742.900; 1.22298
1687.20; 1686.900; 1511.400; 4295.600; 1.20042
1690.95; 1667.900; 1504.400; 3867.300; 1.15993
1694.69; 1656.600; 1514.400; 3526.700; 1.15079
1698.43; 1610.300; 1482.500; 3185.600; 1.12471
1702.16; 1619.200; 1497.600; 2968.200; 1.08256
1705.89; 1613.700; 1499.300; 2779.100; 1.04872
1709.62; 1592.100; 1493.100; 2618.100; 1.05552
1713.35; 1627.300; 1522.600; 2525.400; 0.98127
1717.07; 1589.200; 1492.000; 2393.400; 0.96725
1720.79; 1607.600; 1513.300; 2338.300; 0.94194
1724.50; 1609.900; 1514.000; 2272.300; 0.89802
1728.21; 1586.000; 1499.400; 2201.400; 0.90882
1731.92; 1582.900; 1495.900; 2152.500; 0.87778
1735.63; 1569.200; 1483.800; 2109.800; 0.86512
1739.33; 1610.800; 1525.100; 2113.700; 0.83684
1743.02; 1586.000; 1493.200; 2053.800; 0.78111
1746.72; 1577.900; 1494.300; 2031.700; 0.80809
1750.41; 1582.400; 1502.900; 2014.600; 0.80865
1754.10; 1598.200; 1515.500; 2011.500; 0.77798

