
Integration time [ms]:  10.000
Averaging Nr. [scans]: 10
Smoothing Nr. [pixels]: 0
Data measured with spectrometer [name]: 1911294U1
Wave   ;Sample   ;Dark     ;Reference;Absorbance
[nm]   ;[counts] ;[counts] ;[counts] ;[A.U]

 860.61; 1622.800; 1551.700; 1907.800; 0.69970
 864.82; 1576.100; 1505.600; 1955.500; 0.80493
 869.02; 1584.100; 1514.900; 2034.000; 0.87514
 873.23; 1607.400; 1530.300; 2122.800; 0.88563
 877.43; 1560.600; 1494.800; 2149.500; 0.99782
 881.63; 1612.100; 1530.800; 2256.000; 0.95037
 885.83; 1584.500; 1499.600; 2300.600; 0.97472
 890.03; 1583.000; 1501.000; 2363.200; 1.02179
 894.23; 1589.600; 1498.400; 2434.200; 1.01119
 898.42; 1579.800; 1490.200; 2489.500; 1.04739
 902.62; 1612.400; 1522.400; 2605.100; 1.08027
 906.81; 1584.100; 1488.700; 2644.500; 1.08333
 911.00; 1594.600; 1494.400; 2732.000; 1.09171
 915.19; 1604.500; 1503.000; 2840.700; 1.11989
 919.38; 1651.900; 1541.400; 2988.000; 1.11699
 923.57; 1584.300; 1477.600; 3060.100; 1.17118
 927.76; 1634.900; 1511.200; 3297.300; 1.15954
 931.94; 1622.000; 1493.300; 3511.600; 1.19541
 936.13; 1649.800; 1516.000; 3764.700; 1.22548
 940.31; 1627.500; 1484.900; 3931.100; 1.23437
 944.49; 1701.300; 1547.000; 4163.000; 1.22927
 948.67; 1681.800; 1518.900; 4297.000; 1.23183
 952.85; 1657.200; 1493.400; 4427.000; 1.25309
 957.03; 1669.900; 1501.100; 4604.000; 1.26440
 961.21; 1693.300; 1518.200; 4778.500; 1.26997
 965.38; 1691.400; 1507.600; 4921.400; 1.26889
 969.55; 1690.100; 1505.800; 5072.200; 1.28670
 973.73; 1718.000; 1520.500; 5253.800; 1.27653
 977.90; 1713.700; 1511.100; 5413.200; 1.28466
 982.06; 1724.200; 1518.800; 5592.700; 1.29741
 986.23; 1721.900; 1506.000; 5748.000; 1.29332
 990.40; 1738.300; 1519.400; 5941.100; 1.30534
 994.56; 1768.400; 1538.400; 6129.700; 1.30021
 998.72; 1776.300; 1541.900; 6290.500; 1.30661
1002.88; 1743.600; 1510.200; 6415.300; 1.32255
1007.04; 1767.500; 1529.400; 6579.000; 1.32650
1011.20; 1773.600; 1519.900; 6717.500; 1.31148
1015.36; 1797.700; 1543.200; 6867.300; 1.32056
1019.51; 1766.600; 1510.000; 6947.400; 1.32613
1023.67; 1786.900; 1530.900; 7080.200; 1.33600
1027.82; 1781.700; 1512.800; 7172.800; 1.32323
1031.97; 1794.200; 1525.500; 7291.600; 1.33161
1036.12; 1790.700; 1523.900; 7384.200; 1.34173
1040.27; 1798.800; 1520.100; 7490.500; 1.33087
1044.41; 1794.700; 1522.700; 7585.300; 1.34809
1048.56; 1818.200; 1534.900; 7704.000; 1.33798
1052.70; 1805.900; 1519.500; 7789.500; 1.34029
1056.84; 1822.000; 1529.400; 7905.400; 1.33827
1060.98; 1792.000; 1501.100; 7985.000; 1.34809
1065.11; 1810.900; 1513.900; 8119.500; 1.34716
1069.25; 1832.300; 1526.700; 8264.000; 1.34333
1073.38; 1838.900; 1527.800; 8408.100; 1.34471
1077.52; 1862.700; 1546.500; 8548.800; 1.34528
1081.65; 1850.600; 1532.900; 8683.900; 1.35235
1085.77; 1852.600; 1527.000; 8829.600; 1.35079
1089.90; 1867.800; 1533.700; 8986.900; 1.34847
1094.03; 1837.900; 1500.400; 9113.600; 1.35329
1098.15; 1887.900; 1546.400; 9322.700; 1.35738
1102.27; 1839.500; 1489.800; 9441.600; 1.35677
1106.39; 1880.900; 1527.600; 9661.400; 1.36215
1110.51; 1918.700; 1551.400; 9878.200; 1.35546
1114.63; 1873.100; 1500.800;10067.700; 1.36193
1118.74; 1939.600; 1553.000;10360.700; 1.35760
1122.85; 1921.000; 1530.700;10522.800; 1.36246
1126.96; 1899.400; 1503.600;10642.400; 1.36341
1131.07; 1959.300; 1554.700;10786.500; 1.35826
1135.18; 1908.500; 1504.600;10802.100; 1.36209
1139.29; 1924.500; 1516.000;10868.600; 1.35974
1143.39; 1949.500; 1538.200;10912.400; 1.35778
1147.49; 1918.500; 1518.500;10897.900; 1.37012
1151.59; 1922.000; 1515.000;10914.000; 1.36349
1155.69; 1950.000; 1541.600;10966.800; 1.36320
1159.78; 1913.100; 1502.700;10951.200; 1.36216
1163.88; 1949.300; 1536.300;11019.900; 1.36102
1167.97; 1947.800; 1537.000;11049.100; 1.36465
1172.06; 1926.100; 1514.600;11052.300; 1.36507
1176.15; 1922.700; 1511.400;11073.900; 1.36641
1180.23; 1971.300; 1549.600;11155.900; 1.35755
1184.32; 1913.900; 1494.700;11140.100; 1.36190
1188.40; 1934.100; 1514.000;11201.700; 1.36287
1192.48; 1935.500; 1515.300;11260.500; 1.36533
1196.56; 1944.800; 1521.200;11309.800; 1.36376
1200.64; 1965.200; 1534.600;11380.300; 1.35917
1204.71; 1940.400; 1514.200;11415.100; 1.36606
1208.78; 1958.900; 1522.400;11476.100; 1.35800
1212.85; 1982.300; 1547.900;11559.600; 1.36262
1216.92; 1905.300; 1476.200;11533.500; 1.36992
1220.99; 1971.700; 1534.300;11668.800; 1.36492
1225.05; 1964.300; 1527.500;11719.100; 1.36796
1229.11; 1947.500; 1506.200;11777.200; 1.36688
1233.17; 1982.800; 1537.300;11867.500; 1.36526
1237.23; 1984.800; 1535.100;11935.000; 1.36411
1241.29; 1981.100; 1531.200;11992.800; 1.36648
1245.34; 2010.700; 1560.000;12107.000; 1.36924
1249.39; 1954.200; 1500.000;12117.900; 1.36879
1253.44; 1976.700; 1518.900;12212.500; 1.36845
1257.49; 2014.400; 1552.800;12334.500; 1.36842
1261.53; 1984.200; 1518.900;12369.900; 1.36774
1265.58; 1992.200; 1525.900;12452.600; 1.36982
1269.62; 1991.700; 1519.600;12529.800; 1.36776
1273.65; 1996.000; 1519.900;12603.400; 1.36698
1277.69; 1992.600; 1518.000;12681.800; 1.37148
1281.72; 2008.600; 1530.100;12773.400; 1.37101
1285.76; 2010.700; 1529.900;12851.500; 1.37194
1289.79; 2010.700; 1520.800;12909.400; 1.36636
1293.81; 1996.500; 1511.100;12974.600; 1.37322
1297.84; 1976.700; 1490.200;13004.900; 1.37417
1301.86; 2045.100; 1546.100;13137.300; 1.36603
1305.88; 2011.100; 1520.800;13163.800; 1.37560
1309.90; 2038.800; 1541.300;13243.300; 1.37147
1313.92; 1994.600; 1497.800;13236.900; 1.37345
1317.93; 2030.600; 1527.400;13321.700; 1.36993
1321.94; 2020.900; 1516.400;13349.300; 1.37023
1325.95; 2018.300; 1515.800;13392.300; 1.37355
1329.96; 2040.200; 1527.200;13449.200; 1.36623
1333.96; 2038.700; 1523.500;13501.700; 1.36642
1337.96; 2041.400; 1525.700;13575.100; 1.36857
1341.96; 2050.400; 1530.100;13604.900; 1.36563
1345.96; 2023.900; 1514.800;13535.100; 1.37311
1349.95; 2006.200; 1504.900;13357.000; 1.37370
1353.95; 1989.500; 1500.800;13080.300; 1.37465
1357.94; 1993.500; 1519.000;12810.900; 1.37653
1361.92; 1986.400; 1525.200;12577.700; 1.37957
1365.91; 1962.600; 1509.100;12495.800; 1.38429
1369.89; 1958.700; 1500.900;12522.200; 1.38156
1373.87; 1947.900; 1483.400;12502.700; 1.37517
1377.85; 1995.700; 1541.800;12256.400; 1.37302
1381.82; 1927.100; 1495.800;11839.800; 1.37991
1385.80; 1984.400; 1542.900;11856.600; 1.36848
1389.77; 1970.200; 1524.900;11869.500; 1.36606
1393.74; 1943.200; 1509.900;11804.200; 1.37581
1397.70; 1992.100; 1552.300;11918.000; 1.37234
1401.66; 1970.700; 1522.100;11986.800; 1.36787
1405.62; 1952.900; 1502.000;12055.500; 1.36932
1409.58; 1983.300; 1528.700;12203.600; 1.37073
1413.54; 1982.700; 1519.400;12293.200; 1.36651
1417.49; 1939.000; 1476.800;12292.900; 1.36924
1421.44; 1988.800; 1523.100;12384.600; 1.36778
1425.39; 1974.700; 1510.500;12382.800; 1.36962
1429.33; 1995.200; 1525.700;12395.900; 1.36460
1433.27; 1988.000; 1523.700;12370.200; 1.36849
1437.21; 1964.000; 1502.800;12323.500; 1.37037
1441.15; 2009.500; 1543.700;12339.600; 1.36506
1445.09; 1996.600; 1531.000;12292.800; 1.36387
1449.02; 1949.800; 1489.700;12200.500; 1.36697
1452.95; 1994.700; 1529.700;12230.100; 1.36195
1456.87; 1989.400; 1524.100;12175.900; 1.35969
1460.80; 1970.700; 1510.600;12112.200; 1.36252
1464.72; 1955.100; 1502.500;12023.800; 1.36635
1468.64; 1958.600; 1502.300;11961.600; 1.36025
1472.55; 1970.300; 1518.100;11913.700; 1.36152
1476.47; 1975.300; 1531.300;11884.300; 1.36768
1480.38; 1967.500; 1517.300;11801.000; 1.35874
1484.28; 1977.100; 1535.000;11762.600; 1.36425
1488.19; 1964.300; 1522.200;11690.100; 1.36171
1492.09; 1932.300; 1489.900;11596.700; 1.35880
1495.99; 1942.800; 1506.600;11539.600; 1.36175
1499.89; 1951.200; 1513.300;11504.200; 1.35823
1503.78; 1953.100; 1515.200;11427.600; 1.35480
1507.67; 1968.500; 1539.800;11381.400; 1.36091
1511.56; 1929.600; 1498.300;11268.800; 1.35514
1515.44; 1955.000; 1525.700;11237.600; 1.35454
1519.33; 1940.800; 1515.200;11135.600; 1.35419
1523.21; 1942.500; 1523.900;11078.700; 1.35842
1527.08; 1934.300; 1519.400;10990.300; 1.35845
1530.96; 1920.000; 1500.300;10886.000; 1.34953
1534.83; 1957.800; 1544.300;10845.200; 1.35205
1538.70; 1918.400; 1508.600;10715.900; 1.35156
1542.56; 1902.200; 1500.900;10619.900; 1.35648
1546.42; 1919.300; 1517.300;10554.500; 1.35181
1550.28; 1909.400; 1513.400;10453.100; 1.35363
1554.14; 1905.800; 1508.800;10345.500; 1.34750
1557.99; 1913.000; 1525.700;10266.900; 1.35352
1561.84; 1880.200; 1498.400;10122.900; 1.35390
1565.69; 1889.900; 1516.200;10052.800; 1.35876
1569.54; 1880.000; 1503.300; 9933.900; 1.34986
1573.38; 1875.000; 1501.700; 9824.400; 1.34821
1577.22; 1898.600; 1527.000; 9752.100; 1.34507
1581.05; 1875.700; 1512.400; 9625.200; 1.34891
1584.89; 1883.900; 1524.900; 9522.100; 1.34784
1588.72; 1876.200; 1517.700; 9409.100; 1.34266
1592.54; 1854.300; 1506.200; 9274.600; 1.34863
1596.37; 1866.800; 1517.200; 9177.600; 1.34068
1600.19; 1855.100; 1510.100; 9050.400; 1.33957
1604.01; 1826.700; 1486.400; 8899.400; 1.33813
1607.82; 1837.900; 1509.800; 8796.900; 1.34655
1611.63; 1803.500; 1480.100; 8624.900; 1.34425
1615.44; 1876.000; 1553.300; 8575.400; 1.33767
1619.25; 1798.900; 1486.200; 8361.300; 1.34215
1623.05; 1788.700; 1479.000; 8208.600; 1.33705
1626.85; 1820.400; 1513.000; 8103.300; 1.33120
1630.64; 1826.900; 1524.000; 7969.700; 1.32797
1634.44; 1797.800; 1504.600; 7800.200; 1.33187
1638.23; 1795.800; 1503.300; 7652.600; 1.32270
1642.01; 1785.900; 1506.800; 7500.000; 1.33190
1645.80; 1778.400; 1499.800; 7336.400; 1.32118
1649.58; 1776.300; 1507.600; 7165.100; 1.32336
1653.35; 1819.400; 1554.000; 7043.000; 1.31559
1657.13; 1739.000; 1486.500; 6816.300; 1.32445
1660.90; 1751.500; 1500.200; 6658.700; 1.31233
1664.67; 1729.300; 1492.900; 6464.500; 1.32285
1668.43; 1740.500; 1506.200; 6271.300; 1.30830
1672.19; 1745.600; 1522.100; 6011.600; 1.30292
1675.95; 1700.600; 1493.800; 5613.400; 1.29930
1679.70; 1728.100; 1530.900; 5235.900; 1.27388
1683.46; 1672.100; 1497.800; 4742.900; 1.26993
1687.20; 1670.400; 1511.400; 4295.600; 1.24330
1690.95; 1648.500; 1504.400; 3867.300; 1.21478
1694.69; 1643.800; 1514.400; 3526.700; 1.19176
1698.43; 1596.700; 1482.500; 3185.600; 1.17357
1702.16; 1603.600; 1497.600; 2968.200; 1.14219
1705.89; 1599.400; 1499.300; 2779.100; 1.10671
1709.62; 1585.400; 1493.100; 2618.100; 1.08595
1713.35; 1612.000; 1522.600; 2525.400; 1.04988
1717.07; 1574.700; 1492.000; 2393.400; 1.03741
1720.79; 1599.200; 1513.300; 2338.300; 0.98246
1724.50; 1598.200; 1514.000; 2272.300; 0.95453
1728.21; 1578.800; 1499.400; 2201.400; 0.94652
1731.92; 1569.500; 1495.900; 2152.500; 0.95042
1735.63; 1556.900; 1483.800; 2109.800; 0.93266
1739.33; 1596.800; 1525.100; 2113.700; 0.91430
1743.02; 1571.400; 1493.200; 2053.800; 0.85545
1746.72; 1564.500; 1494.300; 2031.700; 0.88396
1750.41; 1576.100; 1502.900; 2014.600; 0.84450
1754.10; 1585.100; 1515.500; 2011.500; 0.85287

