
Integration time [ms]:  10.000
Averaging Nr. [scans]: 10
Smoothing Nr. [pixels]: 0
Data measured with spectrometer [name]: 1911294U1
Wave   ;Sample   ;Dark     ;Reference;Absorbance
[nm]   ;[counts] ;[counts] ;[counts] ;[A.U]

 860.61; 1619.000; 1551.700; 1907.800; 0.72356
 864.82; 1570.300; 1505.600; 1955.500; 0.84221
 869.02; 1583.900; 1514.900; 2034.000; 0.87640
 873.23; 1608.600; 1530.300; 2122.800; 0.87893
 877.43; 1561.300; 1494.800; 2149.500; 0.99322
 881.63; 1602.900; 1530.800; 2256.000; 1.00252
 885.83; 1584.900; 1499.600; 2300.600; 0.97268
 890.03; 1582.400; 1501.000; 2363.200; 1.02498
 894.23; 1584.600; 1498.400; 2434.200; 1.03568
 898.42; 1576.200; 1490.200; 2489.500; 1.06520
 902.62; 1612.300; 1522.400; 2605.100; 1.08075
 906.81; 1577.500; 1488.700; 2644.500; 1.11447
 911.00; 1590.700; 1494.400; 2732.000; 1.10895
 915.19; 1600.200; 1503.000; 2840.700; 1.13869
 919.38; 1647.300; 1541.400; 2988.000; 1.13545
 923.57; 1585.300; 1477.600; 3060.100; 1.16713
 927.76; 1630.000; 1511.200; 3297.300; 1.17709
 931.94; 1614.100; 1493.300; 3511.600; 1.22292
 936.13; 1654.000; 1516.000; 3764.700; 1.21205
 940.31; 1624.600; 1484.900; 3931.100; 1.24330
 944.49; 1699.700; 1547.000; 4163.000; 1.23380
 948.67; 1680.000; 1518.900; 4297.000; 1.23665
 952.85; 1652.900; 1493.400; 4427.000; 1.26464
 957.03; 1672.000; 1501.100; 4604.000; 1.25903
 961.21; 1694.600; 1518.200; 4778.500; 1.26676
 965.38; 1684.600; 1507.600; 4921.400; 1.28526
 969.55; 1684.400; 1505.800; 5072.200; 1.30035
 973.73; 1712.400; 1520.500; 5253.800; 1.28902
 977.90; 1713.500; 1511.100; 5413.200; 1.28509
 982.06; 1720.300; 1518.800; 5592.700; 1.30574
 986.23; 1713.700; 1506.000; 5748.000; 1.31013
 990.40; 1734.700; 1519.400; 5941.100; 1.31255
 994.56; 1762.100; 1538.400; 6129.700; 1.31227
 998.72; 1764.900; 1541.900; 6290.500; 1.32826
1002.88; 1744.900; 1510.200; 6415.300; 1.32013
1007.04; 1767.300; 1529.400; 6579.000; 1.32686
1011.20; 1769.400; 1519.900; 6717.500; 1.31873
1015.36; 1788.200; 1543.200; 6867.300; 1.33708
1019.51; 1763.600; 1510.000; 6947.400; 1.33124
1023.67; 1782.400; 1530.900; 7080.200; 1.34370
1027.82; 1777.100; 1512.800; 7172.800; 1.33072
1031.97; 1794.600; 1525.500; 7291.600; 1.33097
1036.12; 1789.000; 1523.900; 7384.200; 1.34451
1040.27; 1792.200; 1520.100; 7490.500; 1.34127
1044.41; 1802.100; 1522.700; 7585.300; 1.33643
1048.56; 1815.900; 1534.900; 7704.000; 1.34152
1052.70; 1803.400; 1519.500; 7789.500; 1.34410
1056.84; 1815.100; 1529.400; 7905.400; 1.34864
1060.98; 1790.400; 1501.100; 7985.000; 1.35049
1065.11; 1809.800; 1513.900; 8119.500; 1.34877
1069.25; 1825.300; 1526.700; 8264.000; 1.35340
1073.38; 1838.100; 1527.800; 8408.100; 1.34583
1077.52; 1854.700; 1546.500; 8548.800; 1.35641
1081.65; 1847.600; 1532.900; 8683.900; 1.35647
1085.77; 1853.400; 1527.000; 8829.600; 1.34973
1089.90; 1867.200; 1533.700; 8986.900; 1.34925
1094.03; 1838.000; 1500.400; 9113.600; 1.35316
1098.15; 1885.400; 1546.400; 9322.700; 1.36057
1102.27; 1840.100; 1489.800; 9441.600; 1.35603
1106.39; 1879.900; 1527.600; 9661.400; 1.36338
1110.51; 1916.100; 1551.400; 9878.200; 1.35854
1114.63; 1875.800; 1500.800;10067.700; 1.35879
1118.74; 1936.500; 1553.000;10360.700; 1.36110
1122.85; 1916.600; 1530.700;10522.800; 1.36739
1126.96; 1896.000; 1503.600;10642.400; 1.36716
1131.07; 1954.100; 1554.700;10786.500; 1.36388
1135.18; 1898.500; 1504.600;10802.100; 1.37298
1139.29; 1916.900; 1516.000;10868.600; 1.36790
1143.39; 1939.000; 1538.200;10912.400; 1.36901
1147.49; 1914.600; 1518.500;10897.900; 1.37437
1151.59; 1916.100; 1515.000;10914.000; 1.36983
1155.69; 1944.400; 1541.600;10966.800; 1.36920
1159.78; 1908.000; 1502.700;10951.200; 1.36759
1163.88; 1947.300; 1536.300;11019.900; 1.36313
1167.97; 1943.700; 1537.000;11049.100; 1.36900
1172.06; 1921.500; 1514.600;11052.300; 1.36996
1176.15; 1914.100; 1511.400;11073.900; 1.37559
1180.23; 1966.100; 1549.600;11155.900; 1.36294
1184.32; 1913.800; 1494.700;11140.100; 1.36200
1188.40; 1928.400; 1514.000;11201.700; 1.36880
1192.48; 1936.300; 1515.300;11260.500; 1.36451
1196.56; 1944.100; 1521.200;11309.800; 1.36448
1200.64; 1960.700; 1534.600;11380.300; 1.36374
1204.71; 1933.900; 1514.200;11415.100; 1.37274
1208.78; 1946.800; 1522.400;11476.100; 1.37021
1212.85; 1975.300; 1547.900;11559.600; 1.36967
1216.92; 1902.400; 1476.200;11533.500; 1.37287
1220.99; 1964.600; 1534.300;11668.800; 1.37203
1225.05; 1963.100; 1527.500;11719.100; 1.36915
1229.11; 1943.500; 1506.200;11777.200; 1.37083
1233.17; 1979.700; 1537.300;11867.500; 1.36829
1237.23; 1978.700; 1535.100;11935.000; 1.37004
1241.29; 1973.400; 1531.200;11992.800; 1.37398
1245.34; 2010.400; 1560.000;12107.000; 1.36953
1249.39; 1948.800; 1500.000;12117.900; 1.37399
1253.44; 1972.000; 1518.900;12212.500; 1.37293
1257.49; 2010.500; 1552.800;12334.500; 1.37211
1261.53; 1978.700; 1518.900;12369.900; 1.37290
1265.58; 1986.000; 1525.900;12452.600; 1.37564
1269.62; 1985.600; 1519.600;12529.800; 1.37341
1273.65; 1990.700; 1519.900;12603.400; 1.37184
1277.69; 1987.700; 1518.000;12681.800; 1.37599
1281.72; 2006.000; 1530.100;12773.400; 1.37338
1285.76; 2011.100; 1529.900;12851.500; 1.37158
1289.79; 2002.500; 1520.800;12909.400; 1.37369
1293.81; 1995.600; 1511.100;12974.600; 1.37402
1297.84; 1973.100; 1490.200;13004.900; 1.37740
1301.86; 2031.200; 1546.100;13137.300; 1.37830
1305.88; 2009.900; 1520.800;13163.800; 1.37667
1309.90; 2030.200; 1541.300;13243.300; 1.37904
1313.92; 1987.200; 1497.800;13236.900; 1.37997
1317.93; 2030.100; 1527.400;13321.700; 1.37036
1321.94; 2017.300; 1516.400;13349.300; 1.37334
1325.95; 2015.000; 1515.800;13392.300; 1.37641
1329.96; 2033.900; 1527.200;13449.200; 1.37160
1333.96; 2035.100; 1523.500;13501.700; 1.36946
1337.96; 2035.900; 1525.700;13575.100; 1.37322
1341.96; 2042.200; 1530.100;13604.900; 1.37253
1345.96; 2021.700; 1514.800;13535.100; 1.37499
1349.95; 1999.100; 1504.900;13357.000; 1.37989
1353.95; 1985.600; 1500.800;13080.300; 1.37813
1357.94; 1993.700; 1519.000;12810.900; 1.37635
1361.92; 1988.000; 1525.200;12577.700; 1.37807
1365.91; 1960.100; 1509.100;12495.800; 1.38669
1369.89; 1957.000; 1500.900;12522.200; 1.38317
1373.87; 1941.200; 1483.400;12502.700; 1.38148
1377.85; 1991.600; 1541.800;12256.400; 1.37696
1381.82; 1925.400; 1495.800;11839.800; 1.38162
1385.80; 1979.600; 1542.900;11856.600; 1.37323
1389.77; 1964.100; 1524.900;11869.500; 1.37205
1393.74; 1940.900; 1509.900;11804.200; 1.37812
1397.70; 1989.300; 1552.300;11918.000; 1.37512
1401.66; 1969.800; 1522.100;11986.800; 1.36874
1405.62; 1946.000; 1502.000;12055.500; 1.37601
1409.58; 1980.700; 1528.700;12203.600; 1.37323
1413.54; 1977.600; 1519.400;12293.200; 1.37131
1417.49; 1932.200; 1476.800;12292.900; 1.37568
1421.44; 1980.600; 1523.100;12384.600; 1.37550
1425.39; 1973.300; 1510.500;12382.800; 1.37093
1429.33; 1992.100; 1525.700;12395.900; 1.36748
1433.27; 1981.200; 1523.700;12370.200; 1.37490
1437.21; 1962.400; 1502.800;12323.500; 1.37188
1441.15; 2006.000; 1543.700;12339.600; 1.36833
1445.09; 1988.400; 1531.000;12292.800; 1.37159
1449.02; 1942.700; 1489.700;12200.500; 1.37372
1452.95; 1988.900; 1529.700;12230.100; 1.36740
1456.87; 1986.500; 1524.100;12175.900; 1.36241
1460.80; 1969.000; 1510.600;12112.200; 1.36413
1464.72; 1949.300; 1502.500;12023.800; 1.37196
1468.64; 1953.400; 1502.300;11961.600; 1.36523
1472.55; 1967.200; 1518.100;11913.700; 1.36451
1476.47; 1973.900; 1531.300;11884.300; 1.36905
1480.38; 1969.100; 1517.300;11801.000; 1.35720
1484.28; 1970.900; 1535.000;11762.600; 1.37039
1488.19; 1958.700; 1522.200;11690.100; 1.36725
1492.09; 1927.100; 1489.900;11596.700; 1.36393
1495.99; 1943.800; 1506.600;11539.600; 1.36075
1499.89; 1947.000; 1513.300;11504.200; 1.36242
1503.78; 1943.800; 1515.200;11427.600; 1.36413
1507.67; 1968.300; 1539.800;11381.400; 1.36111
1511.56; 1921.500; 1498.300;11268.800; 1.36337
1515.44; 1948.700; 1525.700;11237.600; 1.36096
1519.33; 1930.200; 1515.200;11135.600; 1.36515
1523.21; 1941.100; 1523.900;11078.700; 1.35988
1527.08; 1929.900; 1519.400;10990.300; 1.36308
1530.96; 1910.400; 1500.300;10886.000; 1.35958
1534.83; 1953.700; 1544.300;10845.200; 1.35638
1538.70; 1911.700; 1508.600;10715.900; 1.35872
1542.56; 1894.700; 1500.900;10619.900; 1.36467
1546.42; 1914.100; 1517.300;10554.500; 1.35746
1550.28; 1904.000; 1513.400;10453.100; 1.35959
1554.14; 1900.300; 1508.800;10345.500; 1.35356
1557.99; 1906.600; 1525.700;10266.900; 1.36076
1561.84; 1876.200; 1498.400;10122.900; 1.35847
1565.69; 1892.100; 1516.200;10052.800; 1.35621
1569.54; 1876.100; 1503.300; 9933.900; 1.35438
1573.38; 1871.800; 1501.700; 9824.400; 1.35195
1577.22; 1894.800; 1527.000; 9752.100; 1.34953
1581.05; 1875.700; 1512.400; 9625.200; 1.34891
1584.89; 1884.100; 1524.900; 9522.100; 1.34760
1588.72; 1875.700; 1517.700; 9409.100; 1.34327
1592.54; 1855.300; 1506.200; 9274.600; 1.34738
1596.37; 1868.500; 1517.200; 9177.600; 1.33857
1600.19; 1850.500; 1510.100; 9050.400; 1.34540
1604.01; 1823.300; 1486.400; 8899.400; 1.34249
1607.82; 1832.200; 1509.800; 8796.900; 1.35416
1611.63; 1803.600; 1480.100; 8624.900; 1.34412
1615.44; 1876.600; 1553.300; 8575.400; 1.33686
1619.25; 1798.200; 1486.200; 8361.300; 1.34312
1623.05; 1787.200; 1479.000; 8208.600; 1.33916
1626.85; 1818.100; 1513.000; 8103.300; 1.33446
1630.64; 1822.200; 1524.000; 7969.700; 1.33476
1634.44; 1798.300; 1504.600; 7800.200; 1.33113
1638.23; 1793.000; 1503.300; 7652.600; 1.32688
1642.01; 1783.500; 1506.800; 7500.000; 1.33565
1645.80; 1772.600; 1499.800; 7336.400; 1.33032
1649.58; 1774.200; 1507.600; 7165.100; 1.32676
1653.35; 1817.500; 1554.000; 7043.000; 1.31871
1657.13; 1741.400; 1486.500; 6816.300; 1.32034
1660.90; 1748.500; 1500.200; 6658.700; 1.31755
1664.67; 1729.400; 1492.900; 6464.500; 1.32267
1668.43; 1737.300; 1506.200; 6271.300; 1.31427
1672.19; 1745.100; 1522.100; 6011.600; 1.30389
1675.95; 1703.400; 1493.800; 5613.400; 1.29346
1679.70; 1728.800; 1530.900; 5235.900; 1.27234
1683.46; 1668.400; 1497.800; 4742.900; 1.27925
1687.20; 1669.000; 1511.400; 4295.600; 1.24714
1690.95; 1649.700; 1504.400; 3867.300; 1.21118
1694.69; 1644.100; 1514.400; 3526.700; 1.19075
1698.43; 1600.500; 1482.500; 3185.600; 1.15936
1702.16; 1607.600; 1497.600; 2968.200; 1.12610
1705.89; 1603.400; 1499.300; 2779.100; 1.08969
1709.62; 1583.500; 1493.100; 2618.100; 1.09498
1713.35; 1613.000; 1522.600; 2525.400; 1.04505
1717.07; 1574.500; 1492.000; 2393.400; 1.03846
1720.79; 1598.500; 1513.300; 2338.300; 0.98601
1724.50; 1594.500; 1514.000; 2272.300; 0.97405
1728.21; 1577.900; 1499.400; 2201.400; 0.95147
1731.92; 1570.600; 1495.900; 2152.500; 0.94398
1735.63; 1558.800; 1483.800; 2109.800; 0.92151
1739.33; 1596.600; 1525.100; 2113.700; 0.91551
1743.02; 1572.700; 1493.200; 2053.800; 0.84829
1746.72; 1563.500; 1494.300; 2031.700; 0.89019
1750.41; 1575.500; 1502.900; 2014.600; 0.84808
1754.10; 1584.400; 1515.500; 2011.500; 0.85726

