
Integration time [ms]:   3.780
Averaging Nr. [scans]: 1
Smoothing Nr. [pixels]: 0
Data measured with spectrometer [name]: 1911294U1
Wave   ;Sample   ;Dark     ;Reference;Absorbance
[nm]   ;[counts] ;[counts] ;[counts] ;[A.U]

 860.61;  129.000;   67.750;  833.250; 1.09684
 864.82;  136.000;   49.750;  998.250; 1.04128
 869.02;  156.000;   59.750; 1169.250; 1.06173
 873.23;  172.000;   54.750; 1288.250; 1.02203
 877.43;  170.000;   53.750; 1415.250; 1.06862
 881.63;  184.000;   54.750; 1540.250; 1.06044
 885.83;  204.000;   49.750; 1684.250; 1.02516
 890.03;  206.000;   28.750; 1796.250; 0.99877
 894.23;  210.000;   40.750; 1929.250; 1.04759
 898.42;  221.000;   37.750; 2071.250; 1.04520
 902.62;  240.000;   56.750; 2213.250; 1.07071
 906.81;  244.000;   35.750; 2337.250; 1.04343
 911.00;  259.000;   53.750; 2523.250; 1.08033
 915.19;  287.000;   45.750; 2712.250; 1.04347
 919.38;  314.000;   47.750; 2963.250; 1.03942
 923.57;  322.000;   53.750; 3292.250; 1.08180
 927.76;  372.000;   40.750; 3728.250; 1.04658
 931.94;  405.000;   39.750; 4163.250; 1.05268
 936.13;  439.000;   53.750; 4579.250; 1.06992
 940.31;  455.000;   50.750; 4873.250; 1.07662
 944.49;  505.000;   63.750; 5167.250; 1.06318
 948.67;  514.000;   49.750; 5411.250; 1.06253
 952.85;  518.000;   50.750; 5679.250; 1.08084
 957.03;  547.000;   47.750; 5965.250; 1.07382
 961.21;  563.000;   58.750; 6236.250; 1.08817
 965.38;  574.000;   44.750; 6471.250; 1.08431
 969.55;  585.000;   37.750; 6719.250; 1.08669
 973.73;  627.000;   56.750; 6971.250; 1.08370
 977.90;  639.000;   42.750; 7222.250; 1.08067
 982.06;  671.000;   44.750; 7469.250; 1.07392
 986.23;  677.000;   51.750; 7739.250; 1.08973
 990.40;  726.000;   61.750; 7985.250; 1.07659
 994.56;  729.000;   65.750; 8243.250; 1.09094
 998.72;  749.000;   58.750; 8450.250; 1.08483
1002.88;  765.000;   57.750; 8670.250; 1.08556
1007.04;  788.000;   52.750; 8879.250; 1.07935
1011.20;  805.000;   49.750; 9068.250; 1.07704
1015.36;  802.000;   45.750; 9257.250; 1.08566
1019.51;  836.000;   60.750; 9402.250; 1.08097
1023.67;  860.000;   69.750; 9574.250; 1.08016
1027.82;  878.000;   61.750; 9729.250; 1.07349
1031.97;  884.000;   55.750; 9851.250; 1.07287
1036.12;  895.000;   49.750;10022.250; 1.07182
1040.27;  898.000;   61.750;10174.250; 1.08252
1044.41;  914.000;   73.750;10320.250; 1.08617
1048.56;  933.000;   53.750;10468.250; 1.07353
1052.70;  942.000;   58.750;10629.250; 1.07801
1056.84;  963.000;   47.750;10798.250; 1.06989
1060.98;  981.000;   67.750;10996.250; 1.07797
1065.11;  991.000;   63.750;11181.250; 1.07881
1069.25; 1014.000;   63.750;11391.250; 1.07630
1073.38; 1025.000;   56.750;11632.250; 1.07755
1077.52; 1069.000;   70.750;11862.250; 1.07233
1081.65; 1062.000;   62.750;12105.250; 1.08104
1085.77; 1085.000;   60.750;12352.250; 1.07920
1089.90; 1111.000;   56.750;12603.250; 1.07558
1094.03; 1128.000;   65.750;12857.250; 1.08069
1098.15; 1158.000;   68.750;13146.250; 1.07940
1102.27; 1155.000;   66.750;13436.250; 1.08939
1106.39; 1200.000;   69.750;13733.250; 1.08239
1110.51; 1219.000;   69.750;14055.250; 1.08526
1114.63; 1238.000;   49.750;14464.250; 1.08389
1118.74; 1275.000;   73.750;14874.250; 1.09064
1122.85; 1295.000;   70.750;15167.250; 1.09101
1126.96; 1292.000;   61.750;15350.250; 1.09437
1131.07; 1299.000;   57.750;15457.250; 1.09365
1135.18; 1293.000;   63.750;15545.250; 1.10017
1139.29; 1245.000;   45.750;15604.250; 1.11306
1143.39; 1251.000;   62.750;15613.250; 1.11684
1147.49; 1210.000;   71.750;15592.250; 1.13467
1151.59; 1179.000;   71.750;15618.250; 1.14739
1155.69; 1166.000;   64.750;15618.250; 1.14994
1159.78; 1166.000;   61.750;15619.250; 1.14887
1163.88; 1159.000;   66.750;15654.250; 1.15445
1167.97; 1149.000;   60.750;15657.250; 1.15630
1172.06; 1127.000;   60.750;15668.250; 1.16547
1176.15; 1123.000;   53.750;15670.250; 1.16450
1180.23; 1125.000;   59.750;15679.250; 1.16622
1184.32; 1117.000;   50.750;15690.250; 1.16636
1188.40; 1124.000;   57.750;15712.250; 1.16678
1192.48; 1111.000;   55.750;15725.250; 1.17170
1196.56; 1127.000;   53.750;15754.250; 1.16521
1200.64; 1138.000;   72.750;15783.250; 1.16874
1204.71; 1130.000;   50.750;15806.250; 1.16431
1208.78; 1140.000;   69.750;15849.250; 1.16861
1212.85; 1135.000;   54.750;15854.250; 1.16512
1216.92; 1133.000;   37.750;15840.250; 1.15921
1220.99; 1151.000;   49.750;15897.250; 1.15807
1225.05; 1169.000;   60.750;15920.250; 1.15565
1229.11; 1154.000;   53.750;15924.250; 1.15910
1233.17; 1163.000;   58.750;15926.250; 1.15744
1237.23; 1176.000;   49.750;15943.250; 1.14958
1241.29; 1173.000;   51.750;15960.250; 1.15193
1245.34; 1186.000;   79.750;16029.250; 1.15889
1249.39; 1191.000;   55.750;16081.250; 1.14972
1253.44; 1187.000;   36.750;16122.250; 1.14564
1257.49; 1228.000;   73.750;16225.250; 1.14591
1261.53; 1210.000;   40.750;16273.250; 1.14248
1265.58; 1215.000;   46.750;16338.250; 1.14443
1269.62; 1215.000;   46.750;16412.250; 1.14639
1273.65; 1221.000;   55.750;16472.250; 1.14886
1277.69; 1220.000;   53.750;16552.250; 1.15065
1281.72; 1237.000;   65.750;16612.250; 1.15006
1285.76; 1225.000;   66.750;16662.250; 1.15619
1289.79; 1221.000;   56.750;16697.250; 1.15512
1293.81; 1218.000;   44.750;16713.250; 1.15251
1297.84; 1204.000;   49.750;16765.250; 1.16082
1301.86; 1210.000;   43.750;16807.250; 1.15757
1305.88; 1208.000;   58.750;16824.250; 1.16400
1309.90; 1196.000;   49.750;16842.250; 1.16584
1313.92; 1177.000;   55.750;16828.250; 1.17490
1317.93; 1156.000;   65.750;16838.250; 1.18707
1321.94; 1131.000;   46.750;16825.250; 1.18962
1325.95; 1118.000;   64.750;16797.250; 1.20103
1329.96; 1112.000;   63.750;16802.250; 1.20325
1333.96; 1074.000;   52.750;16773.250; 1.21412
1337.96; 1036.000;   63.750;16776.250; 1.23526
1341.96; 1029.000;   46.750;16748.250; 1.23053
1345.96; 1005.000;   59.750;16622.250; 1.24358
1349.95;  958.000;   42.750;16410.250; 1.25244
1353.95;  931.000;   67.750;16154.250; 1.27032
1357.94;  892.000;   50.750;15843.250; 1.27353
1361.92;  860.000;   50.750;15571.250; 1.28282
1365.91;  820.000;   46.750;15308.250; 1.29528
1369.89;  777.000;   50.750;15042.250; 1.31476
1373.87;  719.000;   48.750;14460.250; 1.33247
1377.85;  650.000;   60.750;13607.250; 1.36153
1381.82;  556.000;   48.750;12795.250; 1.40017
1385.80;  494.000;   50.750;12441.250; 1.44644
1389.77;  440.000;   54.750;12376.250; 1.50492
1393.74;  373.000;   63.750;12523.250; 1.60519
1397.70;  323.000;   57.750;12861.250; 1.68367
1401.66;  284.000;   57.750;13177.250; 1.76333
1405.62;  235.000;   34.750;13448.250; 1.82597
1409.58;  208.000;   50.750;13653.250; 1.93703
1413.54;  176.000;   50.750;13787.250; 2.04010
1417.49;  155.000;   27.750;13838.250; 2.03555
1421.44;  170.000;   63.750;13894.250; 2.11451
1425.39;  145.000;   54.750;13879.250; 2.18520
1429.33;  158.000;   64.750;13864.250; 2.17021
1433.27;  144.000;   54.750;13809.250; 2.18784
1437.21;  133.000;   48.750;13776.250; 2.21202
1441.15;  153.000;   52.750;13748.250; 2.13549
1445.09;  150.000;   60.750;13691.250; 2.18390
1449.02;  121.000;   57.750;13611.250; 2.33099
1452.95;  132.000;   52.750;13536.250; 2.23080
1456.87;  122.000;   53.750;13439.250; 2.29253
1460.80;  120.000;   43.750;13345.250; 2.24166
1464.72;  121.000;   59.750;13253.250; 2.33325
1468.64;  126.000;   43.750;13131.250; 2.20172
1472.55;  138.000;   63.750;13051.250; 2.24283
1476.47;  133.000;   43.750;12969.250; 2.16084
1480.38;  142.000;   38.750;12870.250; 2.09439
1484.28;  146.000;   54.750;12750.250; 2.14342
1488.19;  151.000;   50.750;12663.250; 2.09972
1492.09;  129.000;   28.750;12533.250; 2.09598
1495.99;  156.000;   58.750;12434.250; 2.10467
1499.89;  167.000;   46.750;12320.250; 2.00888
1503.78;  183.000;   48.750;12228.250; 1.95772
1507.67;  177.000;   52.750;12113.250; 1.98707
1511.56;  186.000;   33.750;11982.250; 1.89476
1515.44;  198.000;   50.750;11884.250; 1.90506
1519.33;  201.000;   48.750;11757.250; 1.88594
1523.21;  211.000;   35.750;11649.250; 1.82131
1527.08;  216.000;   57.750;11506.250; 1.85940
1530.96;  217.000;   39.750;11368.250; 1.80559
1534.83;  243.000;   52.750;11249.250; 1.76976
1538.70;  242.000;   57.750;11082.250; 1.77695
1542.56;  235.000;   28.750;10958.250; 1.72421
1546.42;  246.000;   39.750;10836.250; 1.71889
1550.28;  250.000;   58.750;10683.250; 1.74471
1554.14;  255.000;   39.750;10510.250; 1.68702
1557.99;  269.000;   41.750;10388.250; 1.65829
1561.84;  263.000;   33.750;10234.250; 1.64831
1565.69;  279.000;   40.750;10095.250; 1.62533
1569.54;  283.000;   24.750; 9939.250; 1.58423
1573.38;  273.000;   40.750; 9804.250; 1.62365
1577.22;  280.000;   31.750; 9649.250; 1.58817
1581.05;  289.000;   49.750; 9522.250; 1.59761
1584.89;  287.000;   45.750; 9369.250; 1.58711
1588.72;  289.000;   41.750; 9215.250; 1.56940
1592.54;  282.000;   35.750; 9061.250; 1.56410
1596.37;  282.000;   22.750; 8908.250; 1.53496
1600.19;  302.000;   43.750; 8774.250; 1.52900
1604.01;  291.000;   33.750; 8610.250; 1.52295
1607.82;  294.000;   31.750; 8473.250; 1.50770
1611.63;  281.000;   22.750; 8316.250; 1.50670
1615.44;  295.000;   26.750; 8167.250; 1.48211
1619.25;  279.000;   34.750; 7998.250; 1.51327
1623.05;  281.000;   13.750; 7822.250; 1.46565
1626.85;  293.000;   26.750; 7668.250; 1.45789
1630.64;  294.000;   42.750; 7511.250; 1.47313
1634.44;  275.000;   26.750; 7307.250; 1.46727
1638.23;  271.000;   18.750; 7114.250; 1.44915
1642.01;  276.000;   39.750; 6938.250; 1.46538
1645.80;  278.000;   42.750; 6743.250; 1.45458
1649.58;  263.000;   38.750; 6531.250; 1.46168
1653.35;  277.000;   44.750; 6309.250; 1.43093
1657.13;  241.000;   36.750; 6064.250; 1.46998
1660.90;  244.000;   34.750; 5808.250; 1.44077
1664.67;  213.000;   28.750; 5491.250; 1.47198
1668.43;  217.000;   24.750; 5119.250; 1.42324
1672.19;  214.000;   35.750; 4656.250; 1.41366
1675.95;  180.000;   31.750; 4113.250; 1.43983
1679.70;  158.000;   46.750; 3563.250; 1.49981
1683.46;  140.000;   23.750; 3047.250; 1.41512
1687.20;  154.000;   39.750; 2617.250; 1.35334
1690.95;  131.000;   36.750; 2243.250; 1.36942
1694.69;  124.000;   56.750; 1964.250; 1.45277
1698.43;  115.000;   22.750; 1699.250; 1.25944
1702.16;  110.000;   44.750; 1533.250; 1.35817
1705.89;  103.000;   30.750; 1372.250; 1.26875
1709.62;   93.000;   25.750; 1277.250; 1.26974
1713.35;   94.000;   17.750; 1187.250; 1.18576
1717.07;  101.000;   42.750; 1123.250; 1.26833
1720.79;   97.000;   41.750; 1064.250; 1.26733
1724.50;  101.000;   44.750; 1019.250; 1.23866
1728.21;  102.000;   29.750;  974.250; 1.11636
1731.92;   95.000;   25.750;  931.250; 1.11647
1735.63;   98.000;   34.750;  925.250; 1.14857
1739.33;  100.000;   23.750;  909.250; 1.06495
1743.02;   92.000;   21.750;  865.250; 1.07944
1746.72;   87.000;   33.750;  872.250; 1.19718
1750.41;  115.000;   37.750;  865.250; 1.02987
1754.10;   93.000;   44.750;  846.250; 1.22041

