
Integration time [ms]:  10.000
Averaging Nr. [scans]: 10
Smoothing Nr. [pixels]: 0
Data measured with spectrometer [name]: 1911294U1
Wave   ;Sample   ;Dark     ;Reference;Absorbance
[nm]   ;[counts] ;[counts] ;[counts] ;[A.U]

 860.61; 1633.700; 1551.700; 1907.800; 0.63776
 864.82; 1588.300; 1505.600; 1955.500; 0.73561
 869.02; 1596.100; 1514.900; 2034.000; 0.80569
 873.23; 1619.900; 1530.300; 2122.800; 0.82038
 877.43; 1577.200; 1494.800; 2149.500; 0.90012
 881.63; 1623.200; 1530.800; 2256.000; 0.89479
 885.83; 1595.600; 1499.600; 2300.600; 0.92136
 890.03; 1594.300; 1501.000; 2363.200; 0.96573
 894.23; 1596.500; 1498.400; 2434.200; 0.97951
 898.42; 1589.600; 1490.200; 2489.500; 1.00231
 902.62; 1631.200; 1522.400; 2605.100; 0.99788
 906.81; 1597.300; 1488.700; 2644.500; 1.02705
 911.00; 1604.500; 1494.400; 2732.000; 1.05079
 915.19; 1610.800; 1503.000; 2840.700; 1.09374
 919.38; 1663.100; 1541.400; 2988.000; 1.07506
 923.57; 1599.200; 1477.600; 3060.100; 1.11441
 927.76; 1646.100; 1511.200; 3297.300; 1.12189
 931.94; 1633.800; 1493.300; 3511.600; 1.15731
 936.13; 1669.000; 1516.000; 3764.700; 1.16724
 940.31; 1640.700; 1484.900; 3931.100; 1.19592
 944.49; 1715.700; 1547.000; 4163.000; 1.19052
 948.67; 1697.500; 1518.900; 4297.000; 1.19187
 952.85; 1672.600; 1493.400; 4427.000; 1.21406
 957.03; 1687.600; 1501.100; 4604.000; 1.22109
 961.21; 1707.700; 1518.200; 4778.500; 1.23565
 965.38; 1703.000; 1507.600; 4921.400; 1.24231
 969.55; 1704.100; 1505.800; 5072.200; 1.25491
 973.73; 1736.100; 1520.500; 5253.800; 1.23844
 977.90; 1724.700; 1511.100; 5413.200; 1.26170
 982.06; 1742.300; 1518.800; 5592.700; 1.26073
 986.23; 1734.700; 1506.000; 5748.000; 1.26830
 990.40; 1760.200; 1519.400; 5941.100; 1.26393
 994.56; 1787.500; 1538.400; 6129.700; 1.26556
 998.72; 1795.000; 1541.900; 6290.500; 1.27327
1002.88; 1765.700; 1510.200; 6415.300; 1.28326
1007.04; 1788.800; 1529.400; 6579.000; 1.28929
1011.20; 1786.800; 1519.900; 6717.500; 1.28945
1015.36; 1819.500; 1543.200; 6867.300; 1.28487
1019.51; 1782.900; 1510.000; 6947.400; 1.29939
1023.67; 1808.500; 1530.900; 7080.200; 1.30082
1027.82; 1796.400; 1512.800; 7172.800; 1.30011
1031.97; 1816.000; 1525.500; 7291.600; 1.29774
1036.12; 1810.500; 1523.900; 7384.200; 1.31064
1040.27; 1812.100; 1520.100; 7490.500; 1.31062
1044.41; 1818.700; 1522.700; 7585.300; 1.31137
1048.56; 1840.500; 1534.900; 7704.000; 1.30507
1052.70; 1825.200; 1519.500; 7789.500; 1.31197
1056.84; 1841.200; 1529.400; 7905.400; 1.31067
1060.98; 1812.500; 1501.100; 7985.000; 1.31852
1065.11; 1836.800; 1513.900; 8119.500; 1.31084
1069.25; 1847.300; 1526.700; 8264.000; 1.32252
1073.38; 1862.600; 1527.800; 8408.100; 1.31282
1077.52; 1884.400; 1546.500; 8548.800; 1.31645
1081.65; 1875.700; 1532.900; 8683.900; 1.31933
1085.77; 1875.000; 1527.000; 8829.600; 1.32190
1089.90; 1886.900; 1533.700; 8986.900; 1.32432
1094.03; 1864.100; 1500.400; 9113.600; 1.32082
1098.15; 1910.300; 1546.400; 9322.700; 1.32979
1102.27; 1857.000; 1489.800; 9441.600; 1.33556
1106.39; 1906.800; 1527.600; 9661.400; 1.33143
1110.51; 1941.900; 1551.400; 9878.200; 1.32886
1114.63; 1899.300; 1500.800;10067.700; 1.33240
1118.74; 1961.900; 1553.000;10360.700; 1.33325
1122.85; 1939.900; 1530.700;10522.800; 1.34193
1126.96; 1917.000; 1503.600;10642.400; 1.34452
1131.07; 1983.500; 1554.700;10786.500; 1.33303
1135.18; 1922.700; 1504.600;10802.100; 1.34709
1139.29; 1945.800; 1516.000;10868.600; 1.33767
1143.39; 1969.700; 1538.200;10912.400; 1.33695
1147.49; 1943.700; 1518.500;10897.900; 1.34358
1151.59; 1944.600; 1515.000;10914.000; 1.34002
1155.69; 1977.000; 1541.600;10966.800; 1.33540
1159.78; 1935.100; 1502.700;10951.200; 1.33948
1163.88; 1975.500; 1536.300;11019.900; 1.33431
1167.97; 1973.600; 1537.000;11049.100; 1.33819
1172.06; 1952.800; 1514.600;11052.300; 1.33777
1176.15; 1948.000; 1511.400;11073.900; 1.34049
1180.23; 1995.500; 1549.600;11155.900; 1.33332
1184.32; 1937.600; 1494.700;11140.100; 1.33801
1188.40; 1959.900; 1514.000;11201.700; 1.33698
1192.48; 1957.900; 1515.300;11260.500; 1.34278
1196.56; 1969.500; 1521.200;11309.800; 1.33915
1200.64; 1991.800; 1534.600;11380.300; 1.33314
1204.71; 1964.700; 1514.200;11415.100; 1.34198
1208.78; 1976.300; 1522.400;11476.100; 1.34102
1212.85; 2003.600; 1547.900;11559.600; 1.34183
1216.92; 1930.700; 1476.200;11533.500; 1.34495
1220.99; 1993.600; 1534.300;11668.800; 1.34371
1225.05; 1988.000; 1527.500;11719.100; 1.34501
1229.11; 1972.600; 1506.200;11777.200; 1.34285
1233.17; 2007.600; 1537.300;11867.500; 1.34173
1237.23; 2011.000; 1535.100;11935.000; 1.33951
1241.29; 2002.600; 1531.200;11992.800; 1.34621
1245.34; 2037.100; 1560.000;12107.000; 1.34452
1249.39; 1973.600; 1500.000;12117.900; 1.35063
1253.44; 1998.900; 1518.900;12212.500; 1.34788
1257.49; 2042.600; 1552.800;12334.500; 1.34267
1261.53; 2008.900; 1518.900;12369.900; 1.34527
1265.58; 2015.700; 1525.900;12452.600; 1.34847
1269.62; 2015.100; 1519.600;12529.800; 1.34675
1273.65; 2021.000; 1519.900;12603.400; 1.34475
1277.69; 2010.700; 1518.000;12681.800; 1.35523
1281.72; 2035.400; 1530.100;12773.400; 1.34734
1285.76; 2036.100; 1529.900;12851.500; 1.34959
1289.79; 2035.100; 1520.800;12909.400; 1.34525
1293.81; 2025.600; 1511.100;12974.600; 1.34793
1297.84; 2001.400; 1490.200;13004.900; 1.35266
1301.86; 2067.800; 1546.100;13137.300; 1.34671
1305.88; 2038.000; 1520.800;13163.800; 1.35241
1309.90; 2064.900; 1541.300;13243.300; 1.34926
1313.92; 2018.600; 1497.800;13236.900; 1.35296
1317.93; 2055.100; 1527.400;13321.700; 1.34929
1321.94; 2043.200; 1516.400;13349.300; 1.35145
1325.95; 2046.000; 1515.800;13392.300; 1.35025
1329.96; 2063.600; 1527.200;13449.200; 1.34686
1333.96; 2062.100; 1523.500;13501.700; 1.34713
1337.96; 2061.800; 1525.700;13575.100; 1.35172
1341.96; 2073.100; 1530.100;13604.900; 1.34708
1345.96; 2048.100; 1514.800;13535.100; 1.35294
1349.95; 2027.700; 1504.900;13357.000; 1.35546
1353.95; 2012.400; 1500.800;13080.300; 1.35476
1357.94; 2014.100; 1519.000;12810.900; 1.35807
1361.92; 2010.700; 1525.200;12577.700; 1.35727
1365.91; 1992.800; 1509.100;12495.800; 1.35629
1369.89; 1986.500; 1500.900;12522.200; 1.35595
1373.87; 1970.100; 1483.400;12502.700; 1.35489
1377.85; 2013.600; 1541.800;12256.400; 1.35622
1381.82; 1950.400; 1495.800;11839.800; 1.35706
1385.80; 2005.300; 1542.900;11856.600; 1.34840
1389.77; 1989.100; 1524.900;11869.500; 1.34801
1393.74; 1964.800; 1509.900;11804.200; 1.35468
1397.70; 2012.700; 1552.300;11918.000; 1.35246
1401.66; 1991.200; 1522.100;11986.800; 1.34846
1405.62; 1970.700; 1502.000;12055.500; 1.35250
1409.58; 2002.500; 1528.700;12203.600; 1.35277
1413.54; 2001.800; 1519.400;12293.200; 1.34896
1417.49; 1960.900; 1476.800;12292.900; 1.34914
1421.44; 2010.700; 1523.100;12384.600; 1.34783
1425.39; 1994.800; 1510.500;12382.800; 1.35121
1429.33; 2015.100; 1525.700;12395.900; 1.34657
1433.27; 2009.800; 1523.700;12370.200; 1.34856
1437.21; 1986.300; 1502.800;12323.500; 1.34986
1441.15; 2029.900; 1543.700;12339.600; 1.34644
1445.09; 2013.000; 1531.000;12292.800; 1.34884
1449.02; 1968.600; 1489.700;12200.500; 1.34958
1452.95; 2017.400; 1529.700;12230.100; 1.34125
1456.87; 2008.800; 1524.100;12175.900; 1.34195
1460.80; 1992.400; 1510.600;12112.200; 1.34250
1464.72; 1978.800; 1502.500;12023.800; 1.34419
1468.64; 1979.300; 1502.300;11961.600; 1.34098
1472.55; 1988.600; 1518.100;11913.700; 1.34429
1476.47; 2000.700; 1531.300;11884.300; 1.34352
1480.38; 1986.200; 1517.300;11801.000; 1.34107
1484.28; 1996.600; 1535.000;11762.600; 1.34551
1488.19; 1987.700; 1522.200;11690.100; 1.33931
1492.09; 1950.100; 1489.900;11596.700; 1.34167
1495.99; 1969.000; 1506.600;11539.600; 1.33641
1499.89; 1968.600; 1513.300;11504.200; 1.34131
1503.78; 1970.800; 1515.200;11427.600; 1.33760
1507.67; 1991.600; 1539.800;11381.400; 1.33812
1511.56; 1943.800; 1498.300;11268.800; 1.34107
1515.44; 1973.200; 1525.700;11237.600; 1.33651
1519.33; 1957.500; 1515.200;11135.600; 1.33748
1523.21; 1966.100; 1523.900;11078.700; 1.33460
1527.08; 1954.200; 1519.400;10990.300; 1.33810
1530.96; 1940.200; 1500.300;10886.000; 1.32911
1534.83; 1980.900; 1544.300;10845.200; 1.32844
1538.70; 1934.300; 1508.600;10715.900; 1.33503
1542.56; 1921.200; 1500.900;10619.900; 1.33639
1546.42; 1938.200; 1517.300;10554.500; 1.33185
1550.28; 1931.800; 1513.400;10453.100; 1.32973
1554.14; 1926.700; 1508.800;10345.500; 1.32522
1557.99; 1938.200; 1525.700;10266.900; 1.32615
1561.84; 1898.300; 1498.400;10122.900; 1.33378
1565.69; 1914.300; 1516.200;10052.800; 1.33129
1569.54; 1904.000; 1503.300; 9933.900; 1.32304
1573.38; 1894.800; 1501.700; 9824.400; 1.32576
1577.22; 1921.300; 1527.000; 9752.100; 1.31931
1581.05; 1897.600; 1512.400; 9625.200; 1.32348
1584.89; 1903.500; 1524.900; 9522.100; 1.32476
1588.72; 1896.300; 1517.700; 9409.100; 1.31897
1592.54; 1874.200; 1506.200; 9274.600; 1.32448
1596.37; 1890.200; 1517.200; 9177.600; 1.31254
1600.19; 1874.400; 1510.100; 9050.400; 1.31593
1604.01; 1842.500; 1486.400; 8899.400; 1.31842
1607.82; 1854.500; 1509.800; 8796.900; 1.32511
1611.63; 1826.800; 1480.100; 8624.900; 1.31404
1615.44; 1895.700; 1553.300; 8575.400; 1.31193
1619.25; 1817.800; 1486.200; 8361.300; 1.31666
1623.05; 1807.100; 1479.000; 8208.600; 1.31198
1626.85; 1836.000; 1513.000; 8103.300; 1.30970
1630.64; 1842.300; 1524.000; 7969.700; 1.30643
1634.44; 1814.700; 1504.600; 7800.200; 1.30754
1638.23; 1810.900; 1503.300; 7652.600; 1.30084
1642.01; 1805.600; 1506.800; 7500.000; 1.30228
1645.80; 1795.900; 1499.800; 7336.400; 1.29472
1649.58; 1794.600; 1507.600; 7165.100; 1.29474
1653.35; 1837.200; 1554.000; 7043.000; 1.28740
1657.13; 1760.900; 1486.500; 6816.300; 1.28833
1660.90; 1766.400; 1500.200; 6658.700; 1.28732
1664.67; 1747.400; 1492.900; 6464.500; 1.29081
1668.43; 1758.500; 1506.200; 6271.300; 1.27615
1672.19; 1767.600; 1522.100; 6011.600; 1.26215
1675.95; 1722.200; 1493.800; 5613.400; 1.25616
1679.70; 1743.300; 1530.900; 5235.900; 1.24163
1683.46; 1691.700; 1497.800; 4742.900; 1.22365
1687.20; 1684.900; 1511.400; 4295.600; 1.20540
1690.95; 1666.300; 1504.400; 3867.300; 1.16420
1694.69; 1658.800; 1514.400; 3526.700; 1.14413
1698.43; 1610.400; 1482.500; 3185.600; 1.12437
1702.16; 1618.900; 1497.600; 2968.200; 1.08363
1705.89; 1614.900; 1499.300; 2779.100; 1.04418
1709.62; 1598.700; 1493.100; 2618.100; 1.02749
1713.35; 1634.900; 1522.600; 2525.400; 0.95083
1717.07; 1587.400; 1492.000; 2393.400; 0.97537
1720.79; 1613.100; 1513.300; 2338.300; 0.91732
1724.50; 1612.500; 1514.000; 2272.300; 0.88640
1728.21; 1590.400; 1499.400; 2201.400; 0.88730
1731.92; 1586.700; 1495.900; 2152.500; 0.85922
1735.63; 1570.200; 1483.800; 2109.800; 0.86006
1739.33; 1609.400; 1525.100; 2113.700; 0.84399
1743.02; 1586.800; 1493.200; 2053.800; 0.77738
1746.72; 1587.400; 1494.300; 2031.700; 0.76135
1750.41; 1589.000; 1502.900; 2014.600; 0.77401
1754.10; 1600.200; 1515.500; 2011.500; 0.76760

