
Integration time [ms]:  10.000
Averaging Nr. [scans]: 10
Smoothing Nr. [pixels]: 0
Data measured with spectrometer [name]: 1911294U1
Wave   ;Sample   ;Dark     ;Reference;Absorbance
[nm]   ;[counts] ;[counts] ;[counts] ;[A.U]

 860.61; 1633.400; 1551.700; 1907.800; 0.63935
 864.82; 1579.600; 1505.600; 1955.500; 0.78388
 869.02; 1595.200; 1514.900; 2034.000; 0.81054
 873.23; 1619.500; 1530.300; 2122.800; 0.82232
 877.43; 1573.100; 1494.800; 2149.500; 0.92228
 881.63; 1619.200; 1530.800; 2256.000; 0.91401
 885.83; 1595.300; 1499.600; 2300.600; 0.92272
 890.03; 1592.700; 1501.000; 2363.200; 0.97324
 894.23; 1598.100; 1498.400; 2434.200; 0.97249
 898.42; 1583.400; 1490.200; 2489.500; 1.03028
 902.62; 1630.400; 1522.400; 2605.100; 1.00108
 906.81; 1592.700; 1488.700; 2644.500; 1.04585
 911.00; 1601.000; 1494.400; 2732.000; 1.06482
 915.19; 1612.900; 1503.000; 2840.700; 1.08536
 919.38; 1661.500; 1541.400; 2988.000; 1.08081
 923.57; 1596.800; 1477.600; 3060.100; 1.12307
 927.76; 1641.300; 1511.200; 3297.300; 1.13763
 931.94; 1633.500; 1493.300; 3511.600; 1.15824
 936.13; 1665.000; 1516.000; 3764.700; 1.17875
 940.31; 1639.700; 1484.900; 3931.100; 1.19872
 944.49; 1714.800; 1547.000; 4163.000; 1.19285
 948.67; 1692.600; 1518.900; 4297.000; 1.20395
 952.85; 1667.800; 1493.400; 4427.000; 1.22585
 957.03; 1688.400; 1501.100; 4604.000; 1.21923
 961.21; 1704.800; 1518.200; 4778.500; 1.24235
 965.38; 1700.500; 1507.600; 4921.400; 1.24791
 969.55; 1703.100; 1505.800; 5072.200; 1.25710
 973.73; 1729.800; 1520.500; 5253.800; 1.25132
 977.90; 1722.400; 1511.100; 5413.200; 1.26640
 982.06; 1737.000; 1518.800; 5592.700; 1.27116
 986.23; 1735.900; 1506.000; 5748.000; 1.26603
 990.40; 1752.700; 1519.400; 5941.100; 1.27767
 994.56; 1782.300; 1538.400; 6129.700; 1.27472
 998.72; 1789.600; 1541.900; 6290.500; 1.28264
1002.88; 1760.200; 1510.200; 6415.300; 1.29271
1007.04; 1788.500; 1529.400; 6579.000; 1.28979
1011.20; 1783.800; 1519.900; 6717.500; 1.29436
1015.36; 1813.400; 1543.200; 6867.300; 1.29456
1019.51; 1785.800; 1510.000; 6947.400; 1.29480
1023.67; 1803.400; 1530.900; 7080.200; 1.30887
1027.82; 1797.200; 1512.800; 7172.800; 1.29889
1031.97; 1812.000; 1525.500; 7291.600; 1.30376
1036.12; 1809.300; 1523.900; 7384.200; 1.31247
1040.27; 1811.600; 1520.100; 7490.500; 1.31136
1044.41; 1821.500; 1522.700; 7585.300; 1.30728
1048.56; 1838.000; 1534.900; 7704.000; 1.30864
1052.70; 1826.600; 1519.500; 7789.500; 1.30999
1056.84; 1836.900; 1529.400; 7905.400; 1.31670
1060.98; 1810.100; 1501.100; 7985.000; 1.32188
1065.11; 1831.800; 1513.900; 8119.500; 1.31762
1069.25; 1851.900; 1526.700; 8264.000; 1.31634
1073.38; 1858.700; 1527.800; 8408.100; 1.31791
1077.52; 1878.100; 1546.500; 8548.800; 1.32463
1081.65; 1869.500; 1532.900; 8683.900; 1.32725
1085.77; 1875.100; 1527.000; 8829.600; 1.32177
1089.90; 1886.700; 1533.700; 8986.900; 1.32457
1094.03; 1861.300; 1500.400; 9113.600; 1.32418
1098.15; 1909.800; 1546.400; 9322.700; 1.33039
1102.27; 1855.400; 1489.800; 9441.600; 1.33746
1106.39; 1902.800; 1527.600; 9661.400; 1.33603
1110.51; 1938.700; 1551.400; 9878.200; 1.33243
1114.63; 1892.800; 1500.800;10067.700; 1.33954
1118.74; 1963.200; 1553.000;10360.700; 1.33187
1122.85; 1937.400; 1530.700;10522.800; 1.34459
1126.96; 1920.100; 1503.600;10642.400; 1.34127
1131.07; 1980.600; 1554.700;10786.500; 1.33598
1135.18; 1925.300; 1504.600;10802.100; 1.34439
1139.29; 1945.900; 1516.000;10868.600; 1.33756
1143.39; 1967.400; 1538.200;10912.400; 1.33927
1147.49; 1939.800; 1518.500;10897.900; 1.34758
1151.59; 1940.300; 1515.000;10914.000; 1.34439
1155.69; 1974.200; 1541.600;10966.800; 1.33820
1159.78; 1931.200; 1502.700;10951.200; 1.34341
1163.88; 1970.200; 1536.300;11019.900; 1.33958
1167.97; 1971.100; 1537.000;11049.100; 1.34069
1172.06; 1946.400; 1514.600;11052.300; 1.34416
1176.15; 1943.000; 1511.400;11073.900; 1.34549
1180.23; 1990.000; 1549.600;11155.900; 1.33871
1184.32; 1933.400; 1494.700;11140.100; 1.34215
1188.40; 1953.700; 1514.000;11201.700; 1.34306
1192.48; 1958.500; 1515.300;11260.500; 1.34219
1196.56; 1964.100; 1521.200;11309.800; 1.34441
1200.64; 1985.100; 1534.600;11380.300; 1.33955
1204.71; 1963.400; 1514.200;11415.100; 1.34323
1208.78; 1976.200; 1522.400;11476.100; 1.34112
1212.85; 1999.900; 1547.900;11559.600; 1.34537
1216.92; 1929.300; 1476.200;11533.500; 1.34629
1220.99; 1986.600; 1534.300;11668.800; 1.35038
1225.05; 1988.700; 1527.500;11719.100; 1.34435
1229.11; 1966.800; 1506.200;11777.200; 1.34829
1233.17; 2007.200; 1537.300;11867.500; 1.34210
1237.23; 2004.900; 1535.100;11935.000; 1.34512
1241.29; 2003.000; 1531.200;11992.800; 1.34584
1245.34; 2036.800; 1560.000;12107.000; 1.34479
1249.39; 1976.400; 1500.000;12117.900; 1.34807
1253.44; 1998.500; 1518.900;12212.500; 1.34824
1257.49; 2038.300; 1552.800;12334.500; 1.34650
1261.53; 2004.400; 1518.900;12369.900; 1.34928
1265.58; 2009.800; 1525.900;12452.600; 1.35373
1269.62; 2015.100; 1519.600;12529.800; 1.34675
1273.65; 2021.800; 1519.900;12603.400; 1.34406
1277.69; 2014.500; 1518.000;12681.800; 1.35189
1281.72; 2035.300; 1530.100;12773.400; 1.34743
1285.76; 2033.300; 1529.900;12851.500; 1.35199
1289.79; 2029.000; 1520.800;12909.400; 1.35044
1293.81; 2021.700; 1511.100;12974.600; 1.35124
1297.84; 2001.700; 1490.200;13004.900; 1.35241
1301.86; 2064.000; 1546.100;13137.300; 1.34988
1305.88; 2033.300; 1520.800;13163.800; 1.35637
1309.90; 2067.000; 1541.300;13243.300; 1.34752
1313.92; 2019.200; 1497.800;13236.900; 1.35246
1317.93; 2053.700; 1527.400;13321.700; 1.35044
1321.94; 2040.000; 1516.400;13349.300; 1.35409
1325.95; 2046.000; 1515.800;13392.300; 1.35025
1329.96; 2063.000; 1527.200;13449.200; 1.34735
1333.96; 2062.600; 1523.500;13501.700; 1.34672
1337.96; 2062.100; 1525.700;13575.100; 1.35148
1341.96; 2071.300; 1530.100;13604.900; 1.34852
1345.96; 2047.300; 1514.800;13535.100; 1.35360
1349.95; 2027.400; 1504.900;13357.000; 1.35571
1353.95; 2016.300; 1500.800;13080.300; 1.35146
1357.94; 2015.800; 1519.000;12810.900; 1.35659
1361.92; 2012.000; 1525.200;12577.700; 1.35611
1365.91; 1991.900; 1509.100;12495.800; 1.35710
1369.89; 1985.400; 1500.900;12522.200; 1.35694
1373.87; 1968.300; 1483.400;12502.700; 1.35650
1377.85; 2017.500; 1541.800;12256.400; 1.35264
1381.82; 1953.000; 1495.800;11839.800; 1.35458
1385.80; 2004.600; 1542.900;11856.600; 1.34905
1389.77; 1984.800; 1524.900;11869.500; 1.35205
1393.74; 1967.400; 1509.900;11804.200; 1.35221
1397.70; 2014.700; 1552.300;11918.000; 1.35058
1401.66; 1989.400; 1522.100;11986.800; 1.35013
1405.62; 1969.800; 1502.000;12055.500; 1.35334
1409.58; 2003.600; 1528.700;12203.600; 1.35176
1413.54; 2001.800; 1519.400;12293.200; 1.34896
1417.49; 1958.300; 1476.800;12292.900; 1.35147
1421.44; 2008.600; 1523.100;12384.600; 1.34970
1425.39; 1993.300; 1510.500;12382.800; 1.35255
1429.33; 2017.300; 1525.700;12395.900; 1.34463
1433.27; 2012.300; 1523.700;12370.200; 1.34634
1437.21; 1985.700; 1502.800;12323.500; 1.35040
1441.15; 2030.400; 1543.700;12339.600; 1.34600
1445.09; 2016.500; 1531.000;12292.800; 1.34570
1449.02; 1962.800; 1489.700;12200.500; 1.35487
1452.95; 2012.000; 1529.700;12230.100; 1.34608
1456.87; 2007.800; 1524.100;12175.900; 1.34285
1460.80; 1990.300; 1510.600;12112.200; 1.34440
1464.72; 1974.200; 1502.500;12023.800; 1.34840
1468.64; 1975.400; 1502.300;11961.600; 1.34455
1472.55; 1990.300; 1518.100;11913.700; 1.34272
1476.47; 1999.700; 1531.300;11884.300; 1.34445
1480.38; 1988.600; 1517.300;11801.000; 1.33885
1484.28; 1999.300; 1535.000;11762.600; 1.34298
1488.19; 1986.200; 1522.200;11690.100; 1.34071
1492.09; 1947.800; 1489.900;11596.700; 1.34384
1495.99; 1967.900; 1506.600;11539.600; 1.33745
1499.89; 1970.000; 1513.300;11504.200; 1.33997
1503.78; 1974.700; 1515.200;11427.600; 1.33389
1507.67; 1988.400; 1539.800;11381.400; 1.34121
1511.56; 1942.700; 1498.300;11268.800; 1.34214
1515.44; 1973.000; 1525.700;11237.600; 1.33671
1519.33; 1955.100; 1515.200;11135.600; 1.33984
1523.21; 1962.600; 1523.900;11078.700; 1.33805
1527.08; 1954.500; 1519.400;10990.300; 1.33780
1530.96; 1936.200; 1500.300;10886.000; 1.33308
1534.83; 1977.100; 1544.300;10845.200; 1.33224
1538.70; 1934.000; 1508.600;10715.900; 1.33533
1542.56; 1919.500; 1500.900;10619.900; 1.33815
1546.42; 1938.100; 1517.300;10554.500; 1.33196
1550.28; 1931.000; 1513.400;10453.100; 1.33056
1554.14; 1919.000; 1508.800;10345.500; 1.33329
1557.99; 1936.000; 1525.700;10266.900; 1.32847
1561.84; 1901.500; 1498.400;10122.900; 1.33032
1565.69; 1910.000; 1516.200;10052.800; 1.33601
1569.54; 1901.200; 1503.300; 9933.900; 1.32608
1573.38; 1893.900; 1501.700; 9824.400; 1.32676
1577.22; 1916.400; 1527.000; 9752.100; 1.32475
1581.05; 1893.800; 1512.400; 9625.200; 1.32779
1584.89; 1903.200; 1524.900; 9522.100; 1.32510
1588.72; 1896.700; 1517.700; 9409.100; 1.31851
1592.54; 1871.900; 1506.200; 9274.600; 1.32721
1596.37; 1884.900; 1517.200; 9177.600; 1.31876
1600.19; 1872.700; 1510.100; 9050.400; 1.31796
1604.01; 1842.900; 1486.400; 8899.400; 1.31793
1607.82; 1854.700; 1509.800; 8796.900; 1.32486
1611.63; 1822.100; 1480.100; 8624.900; 1.31996
1615.44; 1897.700; 1553.300; 8575.400; 1.30940
1619.25; 1814.500; 1486.200; 8361.300; 1.32101
1623.05; 1803.500; 1479.000; 8208.600; 1.31677
1626.85; 1835.700; 1513.000; 8103.300; 1.31011
1630.64; 1843.400; 1524.000; 7969.700; 1.30494
1634.44; 1813.800; 1504.600; 7800.200; 1.30880
1638.23; 1810.100; 1503.300; 7652.600; 1.30197
1642.01; 1808.300; 1506.800; 7500.000; 1.29837
1645.80; 1790.900; 1499.800; 7336.400; 1.30212
1649.58; 1794.600; 1507.600; 7165.100; 1.29474
1653.35; 1839.000; 1554.000; 7043.000; 1.28465
1657.13; 1759.800; 1486.500; 6816.300; 1.29007
1660.90; 1765.600; 1500.200; 6658.700; 1.28862
1664.67; 1740.200; 1492.900; 6464.500; 1.30327
1668.43; 1754.700; 1506.200; 6271.300; 1.28275
1672.19; 1765.900; 1522.100; 6011.600; 1.26516
1675.95; 1720.100; 1493.800; 5613.400; 1.26017
1679.70; 1744.100; 1530.900; 5235.900; 1.24000
1683.46; 1686.400; 1497.800; 4742.900; 1.23569
1687.20; 1684.000; 1511.400; 4295.600; 1.20766
1690.95; 1663.000; 1504.400; 3867.300; 1.17314
1694.69; 1652.400; 1514.400; 3526.700; 1.16381
1698.43; 1604.600; 1482.500; 3185.600; 1.14452
1702.16; 1616.800; 1497.600; 2968.200; 1.09122
1705.89; 1607.200; 1499.300; 2779.100; 1.07412
1709.62; 1595.800; 1493.100; 2618.100; 1.03958
1713.35; 1629.900; 1522.600; 2525.400; 0.97061
1717.07; 1582.300; 1492.000; 2393.400; 0.99923
1720.79; 1606.400; 1513.300; 2338.300; 0.94750
1724.50; 1604.300; 1514.000; 2272.300; 0.92415
1728.21; 1583.900; 1499.400; 2201.400; 0.91948
1731.92; 1586.100; 1495.900; 2152.500; 0.86209
1735.63; 1566.300; 1483.800; 2109.800; 0.88012
1739.33; 1609.500; 1525.100; 2113.700; 0.84348
1743.02; 1583.000; 1493.200; 2053.800; 0.79538
1746.72; 1578.200; 1494.300; 2031.700; 0.80654
1750.41; 1586.300; 1502.900; 2014.600; 0.78785
1754.10; 1593.100; 1515.500; 2011.500; 0.80562

