
Integration time [ms]:  10.000
Averaging Nr. [scans]: 10
Smoothing Nr. [pixels]: 0
Data measured with spectrometer [name]: 1911294U1
Wave   ;Sample   ;Dark     ;Reference;Absorbance
[nm]   ;[counts] ;[counts] ;[counts] ;[A.U]

 860.61; 1630.000; 1551.700; 1907.800; 0.65781
 864.82; 1586.500; 1505.600; 1955.500; 0.74517
 869.02; 1597.500; 1514.900; 2034.000; 0.79827
 873.23; 1620.300; 1530.300; 2122.800; 0.81845
 877.43; 1575.500; 1494.800; 2149.500; 0.90917
 881.63; 1619.600; 1530.800; 2256.000; 0.91204
 885.83; 1598.300; 1499.600; 2300.600; 0.90932
 890.03; 1598.900; 1501.000; 2363.200; 0.94483
 894.23; 1605.200; 1498.400; 2434.200; 0.94261
 898.42; 1589.100; 1490.200; 2489.500; 1.00450
 902.62; 1628.800; 1522.400; 2605.100; 1.00757
 906.81; 1593.500; 1488.700; 2644.500; 1.04252
 911.00; 1606.800; 1494.400; 2732.000; 1.04181
 915.19; 1616.500; 1503.000; 2840.700; 1.07136
 919.38; 1665.700; 1541.400; 2988.000; 1.06588
 923.57; 1601.400; 1477.600; 3060.100; 1.10662
 927.76; 1645.400; 1511.200; 3297.300; 1.12415
 931.94; 1635.200; 1493.300; 3511.600; 1.15300
 936.13; 1667.500; 1516.000; 3764.700; 1.17152
 940.31; 1641.200; 1484.900; 3931.100; 1.19453
 944.49; 1718.000; 1547.000; 4163.000; 1.18464
 948.67; 1698.400; 1518.900; 4297.000; 1.18968
 952.85; 1674.000; 1493.400; 4427.000; 1.21068
 957.03; 1690.400; 1501.100; 4604.000; 1.21462
 961.21; 1713.200; 1518.200; 4778.500; 1.22322
 965.38; 1707.100; 1507.600; 4921.400; 1.23330
 969.55; 1707.000; 1505.800; 5072.200; 1.24860
 973.73; 1736.900; 1520.500; 5253.800; 1.23684
 977.90; 1731.000; 1511.100; 5413.200; 1.24907
 982.06; 1743.200; 1518.800; 5592.700; 1.25899
 986.23; 1741.400; 1506.000; 5748.000; 1.25576
 990.40; 1760.200; 1519.400; 5941.100; 1.26393
 994.56; 1791.900; 1538.400; 6129.700; 1.25796
 998.72; 1798.100; 1541.900; 6290.500; 1.26799
1002.88; 1766.300; 1510.200; 6415.300; 1.28224
1007.04; 1793.700; 1529.400; 6579.000; 1.28116
1011.20; 1792.600; 1519.900; 6717.500; 1.28012
1015.36; 1825.600; 1543.200; 6867.300; 1.27538
1019.51; 1789.500; 1510.000; 6947.400; 1.28901
1023.67; 1810.100; 1530.900; 7080.200; 1.29832
1027.82; 1801.700; 1512.800; 7172.800; 1.29207
1031.97; 1817.600; 1525.500; 7291.600; 1.29535
1036.12; 1818.400; 1523.900; 7384.200; 1.29883
1040.27; 1819.500; 1520.100; 7490.500; 1.29975
1044.41; 1828.600; 1522.700; 7585.300; 1.29708
1048.56; 1845.400; 1534.900; 7704.000; 1.29816
1052.70; 1834.600; 1519.500; 7789.500; 1.29882
1056.84; 1845.500; 1529.400; 7905.400; 1.30472
1060.98; 1816.000; 1501.100; 7985.000; 1.31366
1065.11; 1841.500; 1513.900; 8119.500; 1.30457
1069.25; 1859.100; 1526.700; 8264.000; 1.30682
1073.38; 1867.800; 1527.800; 8408.100; 1.30613
1077.52; 1889.300; 1546.500; 8548.800; 1.31020
1081.65; 1878.600; 1532.900; 8683.900; 1.31567
1085.77; 1884.700; 1527.000; 8829.600; 1.30996
1089.90; 1895.700; 1533.700; 8986.900; 1.31363
1094.03; 1870.100; 1500.400; 9113.600; 1.31372
1098.15; 1917.400; 1546.400; 9322.700; 1.32140
1102.27; 1868.900; 1489.800; 9441.600; 1.32171
1106.39; 1909.700; 1527.600; 9661.400; 1.32812
1110.51; 1947.000; 1551.400; 9878.200; 1.32322
1114.63; 1906.100; 1500.800;10067.700; 1.32505
1118.74; 1969.500; 1553.000;10360.700; 1.32525
1122.85; 1947.500; 1530.700;10522.800; 1.33393
1126.96; 1929.700; 1503.600;10642.400; 1.33138
1131.07; 1993.400; 1554.700;10786.500; 1.32312
1135.18; 1936.400; 1504.600;10802.100; 1.33308
1139.29; 1951.000; 1516.000;10868.600; 1.33244
1143.39; 1982.100; 1538.200;10912.400; 1.32465
1147.49; 1955.300; 1518.500;10897.900; 1.33189
1151.59; 1955.600; 1515.000;10914.000; 1.32904
1155.69; 1981.500; 1541.600;10966.800; 1.33094
1159.78; 1945.200; 1502.700;10951.200; 1.32945
1163.88; 1978.800; 1536.300;11019.900; 1.33106
1167.97; 1983.200; 1537.000;11049.100; 1.32875
1172.06; 1956.900; 1514.600;11052.300; 1.33373
1176.15; 1956.900; 1511.400;11073.900; 1.33172
1180.23; 2002.600; 1549.600;11155.900; 1.32646
1184.32; 1945.900; 1494.700;11140.100; 1.32995
1188.40; 1965.700; 1514.000;11201.700; 1.33137
1192.48; 1974.200; 1515.300;11260.500; 1.32707
1196.56; 1978.200; 1521.200;11309.800; 1.33080
1200.64; 1998.200; 1534.600;11380.300; 1.32710
1204.71; 1972.400; 1514.200;11415.100; 1.33462
1208.78; 1986.200; 1522.400;11476.100; 1.33165
1212.85; 2016.900; 1547.900;11559.600; 1.32933
1216.92; 1938.200; 1476.200;11533.500; 1.33784
1220.99; 2004.500; 1534.300;11668.800; 1.33352
1225.05; 2001.500; 1527.500;11719.100; 1.33246
1229.11; 1980.300; 1506.200;11777.200; 1.33574
1233.17; 2019.700; 1537.300;11867.500; 1.33070
1237.23; 2019.100; 1535.100;11935.000; 1.33218
1241.29; 2013.600; 1531.200;11992.800; 1.33619
1245.34; 2049.600; 1560.000;12107.000; 1.33329
1249.39; 1984.300; 1500.000;12117.900; 1.34092
1253.44; 2008.400; 1518.900;12212.500; 1.33937
1257.49; 2047.700; 1552.800;12334.500; 1.33817
1261.53; 2015.100; 1518.900;12369.900; 1.33981
1265.58; 2024.900; 1525.900;12452.600; 1.34039
1269.62; 2026.600; 1519.600;12529.800; 1.33679
1273.65; 2031.800; 1519.900;12603.400; 1.33549
1277.69; 2024.800; 1518.000;12681.800; 1.34298
1281.72; 2050.400; 1530.100;12773.400; 1.33464
1285.76; 2048.900; 1529.900;12851.500; 1.33874
1289.79; 2040.500; 1520.800;12909.400; 1.34072
1293.81; 2035.800; 1511.100;12974.600; 1.33941
1297.84; 2016.200; 1490.200;13004.900; 1.34027
1301.86; 2081.300; 1546.100;13137.300; 1.33561
1305.88; 2050.400; 1520.800;13163.800; 1.34212
1309.90; 2076.300; 1541.300;13243.300; 1.33991
1313.92; 2032.800; 1497.800;13236.900; 1.34128
1317.93; 2064.700; 1527.400;13321.700; 1.34146
1321.94; 2056.800; 1516.400;13349.300; 1.34038
1325.95; 2055.400; 1515.800;13392.300; 1.34262
1329.96; 2077.700; 1527.200;13449.200; 1.33559
1333.96; 2075.700; 1523.500;13501.700; 1.33630
1337.96; 2075.600; 1525.700;13575.100; 1.34068
1341.96; 2085.800; 1530.100;13604.900; 1.33704
1345.96; 2059.700; 1514.800;13535.100; 1.34360
1349.95; 2040.200; 1504.900;13357.000; 1.34520
1353.95; 2023.500; 1500.800;13080.300; 1.34544
1357.94; 2027.700; 1519.000;12810.900; 1.34631
1361.92; 2022.700; 1525.200;12577.700; 1.34667
1365.91; 2003.300; 1509.100;12495.800; 1.34696
1369.89; 1993.000; 1500.900;12522.200; 1.35018
1373.87; 1983.100; 1483.400;12502.700; 1.34344
1377.85; 2032.900; 1541.800;12256.400; 1.33881
1381.82; 1962.000; 1495.800;11839.800; 1.34612
1385.80; 2015.500; 1542.900;11856.600; 1.33892
1389.77; 2000.200; 1524.900;11869.500; 1.33775
1393.74; 1977.200; 1509.900;11804.200; 1.34300
1397.70; 2026.500; 1552.300;11918.000; 1.33964
1401.66; 2004.300; 1522.100;11986.800; 1.33650
1405.62; 1978.900; 1502.000;12055.500; 1.34497
1409.58; 2015.100; 1528.700;12203.600; 1.34137
1413.54; 2012.400; 1519.400;12293.200; 1.33952
1417.49; 1970.600; 1476.800;12292.900; 1.34052
1421.44; 2022.100; 1523.100;12384.600; 1.33779
1425.39; 2008.600; 1510.500;12382.800; 1.33900
1429.33; 2030.900; 1525.700;12395.900; 1.33277
1433.27; 2019.600; 1523.700;12370.200; 1.33990
1437.21; 1999.600; 1502.800;12323.500; 1.33807
1441.15; 2043.700; 1543.700;12339.600; 1.33429
1445.09; 2027.600; 1531.000;12292.800; 1.33588
1449.02; 1974.100; 1489.700;12200.500; 1.34462
1452.95; 2024.800; 1529.700;12230.100; 1.33471
1456.87; 2024.100; 1524.100;12175.900; 1.32845
1460.80; 2008.000; 1510.600;12112.200; 1.32867
1464.72; 1991.200; 1502.500;12023.800; 1.33303
1468.64; 1984.800; 1502.300;11961.600; 1.33601
1472.55; 2004.000; 1518.100;11913.700; 1.33030
1476.47; 2012.900; 1531.300;11884.300; 1.33238
1480.38; 2003.200; 1517.300;11801.000; 1.32560
1484.28; 2011.600; 1535.000;11762.600; 1.33162
1488.19; 2000.300; 1522.200;11690.100; 1.32771
1492.09; 1963.100; 1489.900;11596.700; 1.32957
1495.99; 1974.800; 1506.600;11539.600; 1.33100
1499.89; 1983.100; 1513.300;11504.200; 1.32769
1503.78; 1983.700; 1515.200;11427.600; 1.32547
1507.67; 2002.600; 1539.800;11381.400; 1.32767
1511.56; 1954.600; 1498.300;11268.800; 1.33067
1515.44; 1985.100; 1525.700;11237.600; 1.32511
1519.33; 1969.300; 1515.200;11135.600; 1.32604
1523.21; 1974.800; 1523.900;11078.700; 1.32614
1527.08; 1969.200; 1519.400;10990.300; 1.32337
1530.96; 1949.800; 1500.300;10886.000; 1.31974
1534.83; 1991.700; 1544.300;10845.200; 1.31783
1538.70; 1944.900; 1508.600;10715.900; 1.32435
1542.56; 1934.900; 1500.900;10619.900; 1.32246
1546.42; 1949.300; 1517.300;10554.500; 1.32055
1550.28; 1942.200; 1513.400;10453.100; 1.31907
1554.14; 1937.700; 1508.800;10345.500; 1.31393
1557.99; 1943.000; 1525.700;10266.900; 1.32112
1561.84; 1909.300; 1498.400;10122.900; 1.32200
1565.69; 1924.400; 1516.200;10052.800; 1.32041
1569.54; 1910.800; 1503.300; 9933.900; 1.31573
1573.38; 1900.200; 1501.700; 9824.400; 1.31984
1577.22; 1928.900; 1527.000; 9752.100; 1.31102
1581.05; 1906.000; 1512.400; 9625.200; 1.31412
1584.89; 1920.200; 1524.900; 9522.100; 1.30601
1588.72; 1905.800; 1517.700; 9409.100; 1.30821
1592.54; 1878.600; 1506.200; 9274.600; 1.31932
1596.37; 1898.700; 1517.200; 9177.600; 1.30276
1600.19; 1886.200; 1510.100; 9050.400; 1.30209
1604.01; 1850.700; 1486.400; 8899.400; 1.30853
1607.82; 1864.000; 1509.800; 8796.900; 1.31331
1611.63; 1834.900; 1480.100; 8624.900; 1.30401
1615.44; 1906.900; 1553.300; 8575.400; 1.29795
1619.25; 1826.900; 1486.200; 8361.300; 1.30491
1623.05; 1817.100; 1479.000; 8208.600; 1.29894
1626.85; 1845.700; 1513.000; 8103.300; 1.29685
1630.64; 1852.400; 1524.000; 7969.700; 1.29287
1634.44; 1828.700; 1504.600; 7800.200; 1.28836
1638.23; 1817.800; 1503.300; 7652.600; 1.29121
1642.01; 1811.700; 1506.800; 7500.000; 1.29350
1645.80; 1800.700; 1499.800; 7336.400; 1.28774
1649.58; 1799.700; 1507.600; 7165.100; 1.28709
1653.35; 1845.600; 1554.000; 7043.000; 1.27471
1657.13; 1768.100; 1486.500; 6816.300; 1.27708
1660.90; 1771.100; 1500.200; 6658.700; 1.27971
1664.67; 1751.800; 1492.900; 6464.500; 1.28336
1668.43; 1762.200; 1506.200; 6271.300; 1.26983
1672.19; 1772.900; 1522.100; 6011.600; 1.25287
1675.95; 1726.200; 1493.800; 5613.400; 1.24862
1679.70; 1751.100; 1530.900; 5235.900; 1.22597
1683.46; 1693.400; 1497.800; 4742.900; 1.21986
1687.20; 1685.300; 1511.400; 4295.600; 1.20440
1690.95; 1667.700; 1504.400; 3867.300; 1.16046
1694.69; 1656.300; 1514.400; 3526.700; 1.15171
1698.43; 1613.600; 1482.500; 3185.600; 1.11364
1702.16; 1623.900; 1497.600; 2968.200; 1.06609
1705.89; 1618.000; 1499.300; 2779.100; 1.03269
1709.62; 1602.200; 1493.100; 2618.100; 1.01333
1713.35; 1630.100; 1522.600; 2525.400; 0.96981
1717.07; 1588.600; 1492.000; 2393.400; 0.96994
1720.79; 1613.700; 1513.300; 2338.300; 0.91472
1724.50; 1606.700; 1514.000; 2272.300; 0.91276
1728.21; 1591.000; 1499.400; 2201.400; 0.88444
1731.92; 1580.700; 1495.900; 2152.500; 0.88891
1735.63; 1574.100; 1483.800; 2109.800; 0.84089
1739.33; 1613.800; 1525.100; 2113.700; 0.82190
1743.02; 1581.800; 1493.200; 2053.800; 0.80122
1746.72; 1583.200; 1494.300; 2031.700; 0.78140
1750.41; 1592.700; 1502.900; 2014.600; 0.75574
1754.10; 1601.000; 1515.500; 2011.500; 0.76352

