
Integration time [ms]:  10.000
Averaging Nr. [scans]: 10
Smoothing Nr. [pixels]: 0
Data measured with spectrometer [name]: 1911294U1
Wave   ;Sample   ;Dark     ;Reference;Absorbance
[nm]   ;[counts] ;[counts] ;[counts] ;[A.U]

 860.61; 1621.500; 1551.700; 1907.800; 0.70772
 864.82; 1573.900; 1505.600; 1955.500; 0.81870
 869.02; 1587.400; 1514.900; 2034.000; 0.85491
 873.23; 1606.600; 1530.300; 2122.800; 0.89016
 877.43; 1567.100; 1494.800; 2149.500; 0.95690
 881.63; 1610.900; 1530.800; 2256.000; 0.95683
 885.83; 1589.100; 1499.600; 2300.600; 0.95181
 890.03; 1585.500; 1501.000; 2363.200; 1.00875
 894.23; 1590.300; 1498.400; 2434.200; 1.00787
 898.42; 1580.600; 1490.200; 2489.500; 1.04353
 902.62; 1620.500; 1522.400; 2605.100; 1.04284
 906.81; 1582.700; 1488.700; 2644.500; 1.08975
 911.00; 1592.400; 1494.400; 2732.000; 1.10135
 915.19; 1605.500; 1503.000; 2840.700; 1.11563
 919.38; 1654.200; 1541.400; 2988.000; 1.10804
 923.57; 1590.000; 1477.600; 3060.100; 1.14858
 927.76; 1632.300; 1511.200; 3297.300; 1.16876
 931.94; 1623.600; 1493.300; 3511.600; 1.19004
 936.13; 1655.700; 1516.000; 3764.700; 1.20674
 940.31; 1631.400; 1484.900; 3931.100; 1.22265
 944.49; 1710.100; 1547.000; 4163.000; 1.20518
 948.67; 1687.300; 1518.900; 4297.000; 1.21741
 952.85; 1659.400; 1493.400; 4427.000; 1.24729
 957.03; 1679.800; 1501.100; 4604.000; 1.23964
 961.21; 1696.800; 1518.200; 4778.500; 1.26138
 965.38; 1692.700; 1507.600; 4921.400; 1.26583
 969.55; 1697.200; 1505.800; 5072.200; 1.27029
 973.73; 1720.100; 1520.500; 5253.800; 1.27193
 977.90; 1715.100; 1511.100; 5413.200; 1.28167
 982.06; 1724.200; 1518.800; 5592.700; 1.29741
 986.23; 1726.600; 1506.000; 5748.000; 1.28397
 990.40; 1747.900; 1519.400; 5941.100; 1.28670
 994.56; 1777.400; 1538.400; 6129.700; 1.28354
 998.72; 1779.400; 1541.900; 6290.500; 1.30090
1002.88; 1749.800; 1510.200; 6415.300; 1.31116
1007.04; 1775.000; 1529.400; 6579.000; 1.31303
1011.20; 1782.700; 1519.900; 6717.500; 1.29618
1015.36; 1803.800; 1543.200; 6867.300; 1.31027
1019.51; 1771.800; 1510.000; 6947.400; 1.31742
1023.67; 1796.600; 1530.900; 7080.200; 1.31985
1027.82; 1788.500; 1512.800; 7172.800; 1.31238
1031.97; 1803.100; 1525.500; 7291.600; 1.31746
1036.12; 1801.100; 1523.900; 7384.200; 1.32513
1040.27; 1805.800; 1520.100; 7490.500; 1.32009
1044.41; 1812.600; 1522.700; 7585.300; 1.32041
1048.56; 1826.300; 1534.900; 7704.000; 1.32573
1052.70; 1813.500; 1519.500; 7789.500; 1.32892
1056.84; 1828.300; 1529.400; 7905.400; 1.32902
1060.98; 1801.000; 1501.100; 7985.000; 1.33486
1065.11; 1821.700; 1513.900; 8119.500; 1.33164
1069.25; 1842.000; 1526.700; 8264.000; 1.32976
1073.38; 1854.000; 1527.800; 8408.100; 1.32412
1077.52; 1870.700; 1546.500; 8548.800; 1.33443
1081.65; 1865.000; 1532.900; 8683.900; 1.33310
1085.77; 1863.000; 1527.000; 8829.600; 1.33714
1089.90; 1879.200; 1533.700; 8986.900; 1.33389
1094.03; 1854.100; 1500.400; 9113.600; 1.33293
1098.15; 1899.600; 1546.400; 9322.700; 1.34275
1102.27; 1847.900; 1489.800; 9441.600; 1.34646
1106.39; 1896.000; 1527.600; 9661.400; 1.34397
1110.51; 1931.400; 1551.400; 9878.200; 1.34069
1114.63; 1885.100; 1500.800;10067.700; 1.34815
1118.74; 1955.100; 1553.000;10360.700; 1.34053
1122.85; 1932.700; 1530.700;10522.800; 1.34964
1126.96; 1914.100; 1503.600;10642.400; 1.34758
1131.07; 1976.900; 1554.700;10786.500; 1.33977
1135.18; 1921.100; 1504.600;10802.100; 1.34875
1139.29; 1935.400; 1516.000;10868.600; 1.34830
1143.39; 1966.700; 1538.200;10912.400; 1.33998
1147.49; 1933.700; 1518.500;10897.900; 1.35392
1151.59; 1936.100; 1515.000;10914.000; 1.34870
1155.69; 1967.800; 1541.600;10966.800; 1.34468
1159.78; 1925.500; 1502.700;10951.200; 1.34923
1163.88; 1962.000; 1536.300;11019.900; 1.34787
1167.97; 1966.200; 1537.000;11049.100; 1.34562
1172.06; 1940.800; 1514.600;11052.300; 1.34983
1176.15; 1939.800; 1511.400;11073.900; 1.34872
1180.23; 1987.700; 1549.600;11155.900; 1.34098
1184.32; 1929.900; 1494.700;11140.100; 1.34563
1188.40; 1951.800; 1514.000;11201.700; 1.34494
1192.48; 1950.700; 1515.300;11260.500; 1.34990
1196.56; 1960.100; 1521.200;11309.800; 1.34835
1200.64; 1980.000; 1534.600;11380.300; 1.34450
1204.71; 1955.400; 1514.200;11415.100; 1.35104
1208.78; 1973.700; 1522.400;11476.100; 1.34352
1212.85; 1998.700; 1547.900;11559.600; 1.34652
1216.92; 1920.000; 1476.200;11533.500; 1.35529
1220.99; 1987.600; 1534.300;11668.800; 1.34942
1225.05; 1982.800; 1527.500;11719.100; 1.34994
1229.11; 1963.300; 1506.200;11777.200; 1.35160
1233.17; 1999.200; 1537.300;11867.500; 1.34956
1237.23; 2000.000; 1535.100;11935.000; 1.34967
1241.29; 1990.100; 1531.200;11992.800; 1.35788
1245.34; 2027.500; 1560.000;12107.000; 1.35335
1249.39; 1967.800; 1500.000;12117.900; 1.35598
1253.44; 1992.900; 1518.900;12212.500; 1.35335
1257.49; 2033.000; 1552.800;12334.500; 1.35127
1261.53; 1994.700; 1518.900;12369.900; 1.35805
1265.58; 2012.200; 1525.900;12452.600; 1.35158
1269.62; 2011.100; 1519.600;12529.800; 1.35027
1273.65; 2012.300; 1519.900;12603.400; 1.35236
1277.69; 2006.800; 1518.000;12681.800; 1.35868
1281.72; 2032.400; 1530.100;12773.400; 1.34993
1285.76; 2027.800; 1529.900;12851.500; 1.35677
1289.79; 2025.400; 1520.800;12909.400; 1.35352
1293.81; 2012.500; 1511.100;12974.600; 1.35913
1297.84; 1995.600; 1490.200;13004.900; 1.35762
1301.86; 2056.300; 1546.100;13137.300; 1.35639
1305.88; 2027.200; 1520.800;13163.800; 1.36157
1309.90; 2049.700; 1541.300;13243.300; 1.36205
1313.92; 2009.500; 1497.800;13236.900; 1.36062
1317.93; 2042.900; 1527.400;13321.700; 1.35944
1321.94; 2035.000; 1516.400;13349.300; 1.35826
1325.95; 2033.400; 1515.800;13392.300; 1.36069
1329.96; 2056.600; 1527.200;13449.200; 1.35257
1333.96; 2048.700; 1523.500;13501.700; 1.35807
1337.96; 2052.600; 1525.700;13575.100; 1.35924
1341.96; 2059.800; 1530.100;13604.900; 1.35785
1345.96; 2039.300; 1514.800;13535.100; 1.36017
1349.95; 2019.900; 1504.900;13357.000; 1.36199
1353.95; 2003.300; 1500.800;13080.300; 1.36255
1357.94; 2005.700; 1519.000;12810.900; 1.36551
1361.92; 2004.400; 1525.200;12577.700; 1.36294
1365.91; 1981.800; 1509.100;12495.800; 1.36628
1369.89; 1972.100; 1500.900;12522.200; 1.36903
1373.87; 1959.900; 1483.400;12502.700; 1.36409
1377.85; 2008.600; 1541.800;12256.400; 1.36085
1381.82; 1939.100; 1495.800;11839.800; 1.36799
1385.80; 1995.000; 1542.900;11856.600; 1.35818
1389.77; 1978.300; 1524.900;11869.500; 1.35823
1393.74; 1960.500; 1509.900;11804.200; 1.35881
1397.70; 2006.300; 1552.300;11918.000; 1.35854
1401.66; 1980.600; 1522.100;11986.800; 1.35839
1405.62; 1958.700; 1502.000;12055.500; 1.36377
1409.58; 1992.900; 1528.700;12203.600; 1.36166
1413.54; 1996.700; 1519.400;12293.200; 1.35358
1417.49; 1947.900; 1476.800;12292.900; 1.36096
1421.44; 2003.500; 1523.100;12384.600; 1.35429
1425.39; 1989.400; 1510.500;12382.800; 1.35608
1429.33; 2008.800; 1525.700;12395.900; 1.35220
1433.27; 1997.000; 1523.700;12370.200; 1.36015
1437.21; 1980.700; 1502.800;12323.500; 1.35492
1441.15; 2023.500; 1543.700;12339.600; 1.35220
1445.09; 2004.600; 1531.000;12292.800; 1.35647
1449.02; 1957.700; 1489.700;12200.500; 1.35958
1452.95; 2007.500; 1529.700;12230.100; 1.35015
1456.87; 1999.800; 1524.100;12175.900; 1.35009
1460.80; 1985.900; 1510.600;12112.200; 1.34840
1464.72; 1971.400; 1502.500;12023.800; 1.35099
1468.64; 1966.000; 1502.300;11961.600; 1.35327
1472.55; 1977.900; 1518.100;11913.700; 1.35428
1476.47; 1990.500; 1531.300;11884.300; 1.35306
1480.38; 1983.800; 1517.300;11801.000; 1.34330
1484.28; 1992.100; 1535.000;11762.600; 1.34976
1488.19; 1977.100; 1522.200;11690.100; 1.34932
1492.09; 1943.000; 1489.900;11596.700; 1.34842
1495.99; 1957.600; 1506.600;11539.600; 1.34725
1499.89; 1965.300; 1513.300;11504.200; 1.34447
1503.78; 1958.000; 1515.200;11427.600; 1.34997
1507.67; 1983.800; 1539.800;11381.400; 1.34568
1511.56; 1934.700; 1498.300;11268.800; 1.35003
1515.44; 1968.500; 1525.700;11237.600; 1.34110
1519.33; 1946.700; 1515.200;11135.600; 1.34821
1523.21; 1956.100; 1523.900;11078.700; 1.34454
1527.08; 1949.500; 1519.400;10990.300; 1.34282
1530.96; 1930.200; 1500.300;10886.000; 1.33910
1534.83; 1968.600; 1544.300;10845.200; 1.34085
1538.70; 1926.600; 1508.600;10715.900; 1.34296
1542.56; 1911.400; 1500.900;10619.900; 1.34663
1546.42; 1930.600; 1517.300;10554.500; 1.33977
1550.28; 1917.500; 1513.400;10453.100; 1.34483
1554.14; 1920.200; 1508.800;10345.500; 1.33203
1557.99; 1927.800; 1525.700;10266.900; 1.33724
1561.84; 1889.100; 1498.400;10122.900; 1.34389
1565.69; 1906.600; 1516.200;10052.800; 1.33978
1569.54; 1892.200; 1503.300; 9933.900; 1.33602
1573.38; 1883.200; 1501.700; 9824.400; 1.33877
1577.22; 1907.000; 1527.000; 9752.100; 1.33536
1581.05; 1891.300; 1512.400; 9625.200; 1.33065
1584.89; 1897.600; 1524.900; 9522.100; 1.33158
1588.72; 1889.200; 1517.700; 9409.100; 1.32720
1592.54; 1864.000; 1506.200; 9274.600; 1.33669
1596.37; 1882.400; 1517.200; 9177.600; 1.32172
1600.19; 1863.100; 1510.100; 9050.400; 1.32961
1604.01; 1837.700; 1486.400; 8899.400; 1.32432
1607.82; 1850.400; 1509.800; 8796.900; 1.33031
1611.63; 1817.800; 1480.100; 8624.900; 1.32546
1615.44; 1888.100; 1553.300; 8575.400; 1.32168
1619.25; 1808.900; 1486.200; 8361.300; 1.32848
1623.05; 1798.900; 1479.000; 8208.600; 1.32298
1626.85; 1830.400; 1513.000; 8103.300; 1.31730
1630.64; 1838.600; 1524.000; 7969.700; 1.31151
1634.44; 1806.900; 1504.600; 7800.200; 1.31860
1638.23; 1805.800; 1503.300; 7652.600; 1.30810
1642.01; 1799.000; 1506.800; 7500.000; 1.31198
1645.80; 1786.200; 1499.800; 7336.400; 1.30919
1649.58; 1787.800; 1507.600; 7165.100; 1.30516
1653.35; 1828.000; 1554.000; 7043.000; 1.30174
1657.13; 1753.100; 1486.500; 6816.300; 1.30085
1660.90; 1761.600; 1500.200; 6658.700; 1.29522
1664.67; 1737.100; 1492.900; 6464.500; 1.30875
1668.43; 1751.400; 1506.200; 6271.300; 1.28855
1672.19; 1752.400; 1522.100; 6011.600; 1.28990
1675.95; 1706.500; 1493.800; 5613.400; 1.28709
1679.70; 1737.000; 1530.900; 5235.900; 1.25471
1683.46; 1681.900; 1497.800; 4742.900; 1.24617
1687.20; 1674.100; 1511.400; 4295.600; 1.23331
1690.95; 1654.200; 1504.400; 3867.300; 1.19793
1694.69; 1651.700; 1514.400; 3526.700; 1.16602
1698.43; 1606.400; 1482.500; 3185.600; 1.13817
1702.16; 1610.700; 1497.600; 2968.200; 1.11403
1705.89; 1608.300; 1499.300; 2779.100; 1.06972
1709.62; 1586.700; 1493.100; 2618.100; 1.07988
1713.35; 1618.500; 1522.600; 2525.400; 1.01940
1717.07; 1576.600; 1492.000; 2393.400; 1.02755
1720.79; 1600.600; 1513.300; 2338.300; 0.97544
1724.50; 1600.600; 1514.000; 2272.300; 0.94232
1728.21; 1579.500; 1499.400; 2201.400; 0.94270
1731.92; 1569.800; 1495.900; 2152.500; 0.94866
1735.63; 1569.000; 1483.800; 2109.800; 0.86613
1739.33; 1603.900; 1525.100; 2113.700; 0.87329
1743.02; 1571.400; 1493.200; 2053.800; 0.85545
1746.72; 1570.100; 1494.300; 2031.700; 0.85063
1750.41; 1576.500; 1502.900; 2014.600; 0.84214
1754.10; 1590.400; 1515.500; 2011.500; 0.82100

