
Integration time [ms]:   3.780
Averaging Nr. [scans]: 1
Smoothing Nr. [pixels]: 0
Data measured with spectrometer [name]: 1911294U1
Wave   ;Sample   ;Dark     ;Reference;Absorbance
[nm]   ;[counts] ;[counts] ;[counts] ;[A.U]

 860.61;  115.000;   67.750;  833.250; 1.20954
 864.82;  129.000;   49.750;  998.250; 1.07804
 869.02;  139.000;   59.750; 1169.250; 1.14613
 873.23;  140.000;   54.750; 1288.250; 1.16044
 877.43;  142.000;   53.750; 1415.250; 1.18830
 881.63;  162.000;   54.750; 1540.250; 1.14148
 885.83;  161.000;   49.750; 1684.250; 1.16708
 890.03;  172.000;   28.750; 1796.250; 1.09126
 894.23;  174.000;   40.750; 1929.250; 1.15145
 898.42;  201.000;   37.750; 2071.250; 1.09539
 902.62;  203.000;   56.750; 2213.250; 1.16865
 906.81;  203.000;   35.750; 2337.250; 1.13864
 911.00;  236.000;   53.750; 2523.250; 1.13194
 915.19;  229.000;   45.750; 2712.250; 1.16290
 919.38;  247.000;   47.750; 2963.250; 1.16531
 923.57;  290.000;   53.750; 3292.250; 1.13697
 927.76;  306.000;   40.750; 3728.250; 1.14308
 931.94;  340.000;   39.750; 4163.250; 1.13778
 936.13;  377.000;   53.750; 4579.250; 1.14613
 940.31;  376.000;   50.750; 4873.250; 1.17105
 944.49;  421.000;   63.750; 5167.250; 1.15490
 948.67;  417.000;   49.750; 5411.250; 1.16432
 952.85;  422.000;   50.750; 5679.250; 1.18073
 957.03;  437.000;   47.750; 5965.250; 1.18191
 961.21;  456.000;   58.750; 6236.250; 1.19175
 965.38;  483.000;   44.750; 6471.250; 1.16625
 969.55;  475.000;   37.750; 6719.250; 1.18414
 973.73;  505.000;   56.750; 6971.250; 1.18824
 977.90;  509.000;   42.750; 7222.250; 1.18748
 982.06;  538.000;   44.750; 7469.250; 1.17760
 986.23;  556.000;   51.750; 7739.250; 1.18314
 990.40;  564.000;   61.750; 7985.250; 1.19800
 994.56;  591.000;   65.750; 8243.250; 1.19225
 998.72;  601.000;   58.750; 8450.250; 1.18964
1002.88;  617.000;   57.750; 8670.250; 1.18752
1007.04;  630.000;   52.750; 8879.250; 1.18442
1011.20;  644.000;   49.750; 9068.250; 1.18117
1015.36;  650.000;   45.750; 9257.250; 1.18311
1019.51;  663.000;   60.750; 9402.250; 1.19064
1023.67;  699.000;   69.750; 9574.250; 1.17911
1027.82;  683.000;   61.750; 9729.250; 1.19205
1031.97;  702.000;   55.750; 9851.250; 1.18063
1036.12;  709.000;   49.750;10022.250; 1.17975
1040.27;  724.000;   61.750;10174.250; 1.18384
1044.41;  742.000;   73.750;10320.250; 1.18564
1048.56;  740.000;   53.750;10468.250; 1.18116
1052.70;  749.000;   58.750;10629.250; 1.18509
1056.84;  769.000;   47.750;10798.250; 1.17334
1060.98;  778.000;   67.750;10996.250; 1.18715
1065.11;  789.000;   63.750;11181.250; 1.18552
1069.25;  798.000;   63.750;11391.250; 1.18829
1073.38;  821.000;   56.750;11632.250; 1.18030
1077.52;  841.000;   70.750;11862.250; 1.18494
1081.65;  849.000;   62.750;12105.250; 1.18516
1085.77;  841.000;   60.750;12352.250; 1.19737
1089.90;  881.000;   56.750;12603.250; 1.18246
1094.03;  889.000;   65.750;12857.250; 1.19139
1098.15;  909.000;   68.750;13146.250; 1.19212
1102.27;  929.000;   66.750;13436.250; 1.19048
1106.39;  947.000;   69.750;13733.250; 1.19244
1110.51;  961.000;   69.750;14055.250; 1.19568
1114.63;  975.000;   49.750;14464.250; 1.19254
1118.74; 1005.000;   73.750;14874.250; 1.20121
1122.85; 1021.000;   70.750;15167.250; 1.20104
1126.96; 1014.000;   61.750;15350.250; 1.20561
1131.07; 1019.000;   57.750;15457.250; 1.20467
1135.18;  984.000;   63.750;15545.250; 1.22591
1139.29;  973.000;   45.750;15604.250; 1.22477
1143.39;  953.000;   62.750;15613.250; 1.24223
1147.49;  927.000;   71.750;15592.250; 1.25881
1151.59;  922.000;   71.750;15618.250; 1.26209
1155.69;  900.000;   64.750;15618.250; 1.27001
1159.78;  883.000;   61.750;15619.250; 1.27746
1163.88;  895.000;   66.750;15654.250; 1.27462
1167.97;  876.000;   60.750;15657.250; 1.28174
1172.06;  879.000;   60.750;15668.250; 1.28045
1176.15;  856.000;   53.750;15670.250; 1.28927
1180.23;  872.000;   59.750;15679.250; 1.28398
1184.32;  832.000;   50.750;15690.250; 1.30143
1188.40;  852.000;   57.750;15712.250; 1.29468
1192.48;  844.000;   55.750;15725.250; 1.29839
1196.56;  854.000;   53.750;15754.250; 1.29269
1200.64;  856.000;   72.750;15783.250; 1.30229
1204.71;  866.000;   50.750;15806.250; 1.28614
1208.78;  858.000;   69.750;15849.250; 1.30143
1212.85;  876.000;   54.750;15854.250; 1.28417
1216.92;  849.000;   37.750;15840.250; 1.28957
1220.99;  866.000;   49.750;15897.250; 1.28814
1225.05;  877.000;   60.750;15920.250; 1.28847
1229.11;  887.000;   53.750;15924.250; 1.27982
1233.17;  870.000;   58.750;15926.250; 1.29135
1237.23;  883.000;   49.750;15943.250; 1.28044
1241.29;  883.000;   51.750;15960.250; 1.28190
1245.34;  901.000;   79.750;16029.250; 1.28827
1249.39;  896.000;   55.750;16081.250; 1.28040
1253.44;  893.000;   36.750;16122.250; 1.27383
1257.49;  908.000;   73.750;16225.250; 1.28692
1261.53;  920.000;   40.750;16273.250; 1.26627
1265.58;  927.000;   46.750;16338.250; 1.26736
1269.62;  908.000;   46.750;16412.250; 1.27880
1273.65;  911.000;   55.750;16472.250; 1.28319
1277.69;  916.000;   53.750;16552.250; 1.28181
1281.72;  924.000;   65.750;16612.250; 1.28509
1285.76;  930.000;   66.750;16662.250; 1.28385
1289.79;  924.000;   56.750;16697.250; 1.28302
1293.81;  910.000;   44.750;16713.250; 1.28475
1297.84;  896.000;   49.750;16765.250; 1.29562
1301.86;  896.000;   43.750;16807.250; 1.29380
1305.88;  895.000;   58.750;16824.250; 1.30208
1309.90;  896.000;   49.750;16842.250; 1.29762
1313.92;  869.000;   55.750;16828.250; 1.31437
1317.93;  854.000;   65.750;16838.250; 1.32793
1321.94;  836.000;   46.750;16825.250; 1.32754
1325.95;  818.000;   64.750;16797.250; 1.34662
1329.96;  824.000;   63.750;16802.250; 1.34276
1333.96;  775.000;   52.750;16773.250; 1.36456
1337.96;  767.000;   63.750;16776.250; 1.37593
1341.96;  746.000;   46.750;16748.250; 1.37812
1345.96;  721.000;   59.750;16622.250; 1.39876
1349.95;  692.000;   42.750;16410.250; 1.40157
1353.95;  678.000;   67.750;16154.250; 1.42095
1357.94;  636.000;   50.750;15843.250; 1.43111
1361.92;  623.000;   50.750;15571.250; 1.43332
1365.91;  591.000;   46.750;15308.250; 1.44780
1369.89;  552.000;   50.750;15042.250; 1.47579
1373.87;  517.000;   48.750;14460.250; 1.48823
1377.85;  476.000;   60.750;13607.250; 1.51352
1381.82;  398.000;   48.750;12795.250; 1.56225
1385.80;  358.000;   50.750;12441.250; 1.60560
1389.77;  308.000;   54.750;12376.250; 1.68711
1393.74;  281.000;   63.750;12523.250; 1.75854
1397.70;  252.000;   57.750;12861.250; 1.81897
1401.66;  205.000;   57.750;13177.250; 1.94986
1405.62;  185.000;   34.750;13448.250; 1.95073
1409.58;  160.000;   50.750;13653.250; 2.09520
1413.54;  143.000;   50.750;13787.250; 2.17291
1417.49;  118.000;   27.750;13838.250; 2.18476
1421.44;  123.000;   63.750;13894.250; 2.36815
1425.39;  129.000;   54.750;13879.250; 2.26995
1429.33;  130.000;   64.750;13864.250; 2.32528
1433.27;  122.000;   54.750;13809.250; 2.31075
1437.21;  107.000;   48.750;13776.250; 2.37230
1441.15;  116.000;   52.750;13748.250; 2.33552
1445.09;  105.000;   60.750;13691.250; 2.48860
1449.02;  107.000;   57.750;13611.250; 2.43965
1452.95;  113.000;   52.750;13536.250; 2.34985
1456.87;  104.000;   53.750;13439.250; 2.42550
1460.80;   98.000;   43.750;13345.250; 2.38950
1464.72;  103.000;   59.750;13253.250; 2.48437
1468.64;   94.000;   43.750;13131.250; 2.41572
1472.55;  119.000;   63.750;13051.250; 2.37119
1476.47;  108.000;   43.750;12969.250; 2.30357
1480.38;  107.000;   38.750;12870.250; 2.27417
1484.28;  118.000;   54.750;12750.250; 2.30259
1488.19;  105.000;   50.750;12663.250; 2.36640
1492.09;  104.000;   28.750;12533.250; 2.22056
1495.99;  120.000;   58.750;12434.250; 2.30546
1499.89;  122.000;   46.750;12320.250; 2.21246
1503.78;  123.000;   48.750;12228.250; 2.21493
1507.67;  135.000;   52.750;12113.250; 2.16623
1511.56;  126.000;   33.750;11982.250; 2.11235
1515.44;  128.000;   50.750;11884.250; 2.18521
1519.33;  149.000;   48.750;11757.250; 2.06742
1523.21;  150.000;   35.750;11649.250; 2.00711
1527.08;  158.000;   57.750;11506.250; 2.05766
1530.96;  151.000;   39.750;11368.250; 2.00787
1534.83;  180.000;   52.750;11249.250; 1.94442
1538.70;  165.000;   57.750;11082.250; 2.01196
1542.56;  157.000;   28.750;10958.250; 1.93054
1546.42;  169.000;   39.750;10836.250; 1.92185
1550.28;  194.000;   58.750;10683.250; 1.89517
1554.14;  182.000;   39.750;10510.250; 1.86692
1557.99;  189.000;   41.750;10388.250; 1.84674
1561.84;  183.000;   33.750;10234.250; 1.83471
1565.69;  177.000;   40.750;10095.250; 1.86802
1569.54;  177.000;   24.750; 9939.250; 1.81371
1573.38;  193.000;   40.750; 9804.250; 1.80705
1577.22;  199.000;   31.750; 9649.250; 1.75970
1581.05;  178.000;   49.750; 9522.250; 1.86841
1584.89;  211.000;   45.750; 9369.250; 1.75144
1588.72;  203.000;   41.750; 9215.250; 1.75504
1592.54;  191.000;   35.750; 9061.250; 1.76444
1596.37;  196.000;   22.750; 8908.250; 1.71001
1600.19;  203.000;   43.750; 8774.250; 1.73896
1604.01;  202.000;   33.750; 8610.250; 1.70736
1607.82;  200.000;   31.750; 8473.250; 1.70046
1611.63;  186.000;   22.750; 8316.250; 1.70588
1615.44;  226.000;   26.750; 8167.250; 1.61125
1619.25;  186.000;   34.750; 7998.250; 1.72141
1623.05;  183.000;   13.750; 7822.250; 1.66404
1626.85;  202.000;   26.750; 7668.250; 1.63952
1630.64;  197.000;   42.750; 7511.250; 1.68501
1634.44;  207.000;   26.750; 7307.250; 1.60629
1638.23;  199.000;   18.750; 7114.250; 1.59511
1642.01;  184.000;   39.750; 6938.250; 1.67964
1645.80;  185.000;   42.750; 6743.250; 1.67305
1649.58;  179.000;   38.750; 6531.250; 1.66551
1653.35;  200.000;   44.750; 6309.250; 1.60585
1657.13;  162.000;   36.750; 6064.250; 1.68236
1660.90;  162.000;   34.750; 5808.250; 1.65678
1664.67;  163.000;   28.750; 5491.250; 1.60948
1668.43;  158.000;   24.750; 5119.250; 1.58243
1672.19;  144.000;   35.750; 4656.250; 1.63026
1675.95;  145.000;   31.750; 4113.250; 1.55678
1679.70;  127.000;   46.750; 3563.250; 1.64167
1683.46;  120.000;   23.750; 3047.250; 1.49711
1687.20;  113.000;   39.750; 2617.250; 1.54639
1690.95;  116.000;   36.750; 2243.250; 1.44470
1694.69;  101.000;   56.750; 1964.250; 1.63455
1698.43;   92.000;   22.750; 1699.250; 1.38398
1702.16;   90.000;   44.750; 1533.250; 1.51713
1705.89;   85.000;   30.750; 1372.250; 1.39319
1709.62;   96.000;   25.750; 1277.250; 1.25078
1713.35;   91.000;   17.750; 1187.250; 1.20319
1717.07;   92.000;   42.750; 1123.250; 1.34122
1720.79;   81.000;   41.750; 1064.250; 1.41582
1724.50;  101.000;   44.750; 1019.250; 1.23866
1728.21;   74.000;   29.750;  974.250; 1.32929
1731.92;   92.000;   25.750;  931.250; 1.13570
1735.63;   72.000;   34.750;  925.250; 1.37851
1739.33;  103.000;   23.750;  909.250; 1.04819
1743.02;   77.000;   21.750;  865.250; 1.18375
1746.72;   87.000;   33.750;  872.250; 1.19718
1750.41;  108.000;   37.750;  865.250; 1.07112
1754.10;  102.000;   44.750;  846.250; 1.14613

