
Integration time [ms]:   3.780
Averaging Nr. [scans]: 1
Smoothing Nr. [pixels]: 0
Data measured with spectrometer [name]: 1911294U1
Wave   ;Sample   ;Dark     ;Reference;Absorbance
[nm]   ;[counts] ;[counts] ;[counts] ;[A.U]

 860.61;   67.000;   67.750;  833.250; 5.00000
 864.82;   77.000;   49.750;  998.250; 1.54167
 869.02;   92.000;   59.750; 1169.250; 1.53660
 873.23;   71.000;   54.750; 1288.250; 1.88029
 877.43;   86.000;   53.750; 1415.250; 1.62549
 881.63;   89.000;   54.750; 1540.250; 1.63721
 885.83;   92.000;   49.750; 1684.250; 1.58756
 890.03;   89.000;   28.750; 1796.250; 1.46740
 894.23;   79.000;   40.750; 1929.250; 1.69349
 898.42;  102.000;   37.750; 2071.250; 1.50037
 902.62;  102.000;   56.750; 2213.250; 1.67813
 906.81;   85.000;   35.750; 2337.250; 1.66960
 911.00;  106.000;   53.750; 2523.250; 1.67452
 915.19;  101.000;   45.750; 2712.250; 1.68361
 919.38;  118.000;   47.750; 2963.250; 1.61807
 923.57;  122.000;   53.750; 3292.250; 1.67624
 927.76;  120.000;   40.750; 3728.250; 1.66773
 931.94;  136.000;   39.750; 4163.250; 1.63187
 936.13;  152.000;   53.750; 4579.250; 1.66333
 940.31;  154.000;   50.750; 4873.250; 1.66938
 944.49;  178.000;   63.750; 5167.250; 1.65001
 948.67;  167.000;   49.750; 5411.250; 1.66017
 952.85;  163.000;   50.750; 5679.250; 1.70021
 957.03;  179.000;   47.750; 5965.250; 1.65404
 961.21;  180.000;   58.750; 6236.250; 1.70713
 965.38;  178.000;   44.750; 6471.250; 1.68331
 969.55;  185.000;   37.750; 6719.250; 1.65682
 973.73;  203.000;   56.750; 6971.250; 1.67466
 977.90;  181.000;   42.750; 7222.250; 1.71543
 982.06;  201.000;   44.750; 7469.250; 1.67685
 986.23;  192.000;   51.750; 7739.250; 1.73888
 990.40;  232.000;   61.750; 7985.250; 1.66783
 994.56;  229.000;   65.750; 8243.250; 1.69977
 998.72;  236.000;   58.750; 8450.250; 1.67525
1002.88;  226.000;   57.750; 8670.250; 1.70917
1007.04;  233.000;   52.750; 8879.250; 1.68991
1011.20;  241.000;   49.750; 9068.250; 1.67353
1015.36;  250.000;   45.750; 9257.250; 1.65417
1019.51;  243.000;   60.750; 9402.250; 1.70975
1023.67;  256.000;   69.750; 9574.250; 1.70783
1027.82;  252.000;   61.750; 9729.250; 1.70599
1031.97;  260.000;   55.750; 9851.250; 1.68086
1036.12;  252.000;   49.750;10022.250; 1.69292
1040.27;  269.000;   61.750;10174.250; 1.68836
1044.41;  259.000;   73.750;10320.250; 1.74282
1048.56;  267.000;   53.750;10468.250; 1.68875
1052.70;  269.000;   58.750;10629.250; 1.70136
1056.84;  275.000;   47.750;10798.250; 1.67492
1060.98;  280.000;   67.750;10996.250; 1.71171
1065.11;  289.000;   63.750;11181.250; 1.69334
1069.25;  281.000;   63.750;11391.250; 1.71717
1073.38;  294.000;   56.750;11632.250; 1.68833
1077.52;  289.000;   70.750;11862.250; 1.73261
1081.65;  295.000;   62.750;12105.250; 1.71476
1085.77;  302.000;   60.750;12352.250; 1.70714
1089.90;  294.000;   56.750;12603.250; 1.72332
1094.03;  300.000;   65.750;12857.250; 1.73724
1098.15;  326.000;   68.750;13146.250; 1.70617
1102.27;  323.000;   66.750;13436.250; 1.71745
1106.39;  338.000;   69.750;13733.250; 1.70702
1110.51;  328.000;   69.750;14055.250; 1.73364
1114.63;  331.000;   49.750;14464.250; 1.70971
1118.74;  336.000;   73.750;14874.250; 1.75156
1122.85;  357.000;   70.750;15167.250; 1.72213
1126.96;  346.000;   61.750;15350.250; 1.73066
1131.07;  347.000;   57.750;15457.250; 1.72623
1135.18;  341.000;   63.750;15545.250; 1.74694
1139.29;  325.000;   45.750;15604.250; 1.74597
1143.39;  322.000;   62.750;15613.250; 1.77803
1147.49;  322.000;   71.750;15592.250; 1.79253
1151.59;  309.000;   71.750;15618.250; 1.81643
1155.69;  314.000;   64.750;15618.250; 1.79519
1159.78;  300.000;   61.750;15619.250; 1.81491
1163.88;  312.000;   66.750;15654.250; 1.80317
1167.97;  310.000;   60.750;15657.250; 1.79639
1172.06;  292.000;   60.750;15668.250; 1.82925
1176.15;  270.000;   53.750;15670.250; 1.85863
1180.23;  293.000;   59.750;15679.250; 1.82585
1184.32;  269.000;   50.750;15690.250; 1.85527
1188.40;  286.000;   57.750;15712.250; 1.83623
1192.48;  287.000;   55.750;15725.250; 1.83097
1196.56;  276.000;   53.750;15754.250; 1.84907
1200.64;  288.000;   72.750;15783.250; 1.86325
1204.71;  286.000;   50.750;15806.250; 1.82590
1208.78;  296.000;   69.750;15849.250; 1.84350
1212.85;  291.000;   54.750;15854.250; 1.82527
1216.92;  271.000;   37.750;15840.250; 1.83090
1220.99;  297.000;   49.750;15897.250; 1.80682
1225.05;  282.000;   60.750;15920.250; 1.85541
1229.11;  285.000;   53.750;15924.250; 1.83651
1233.17;  295.000;   58.750;15926.250; 1.82714
1237.23;  293.000;   49.750;15943.250; 1.81517
1241.29;  294.000;   51.750;15960.250; 1.81737
1245.34;  302.000;   79.750;16029.250; 1.85591
1249.39;  292.000;   55.750;16081.250; 1.83144
1253.44;  287.000;   36.750;16122.250; 1.80806
1257.49;  306.000;   73.750;16225.250; 1.84226
1261.53;  294.000;   40.750;16273.250; 1.80684
1265.58;  296.000;   46.750;16338.250; 1.81533
1269.62;  301.000;   46.750;16412.250; 1.80867
1273.65;  295.000;   55.750;16472.250; 1.83643
1277.69;  310.000;   53.750;16552.250; 1.80878
1281.72;  304.000;   65.750;16612.250; 1.84167
1285.76;  303.000;   66.750;16662.250; 1.84662
1289.79;  304.000;   56.750;16697.250; 1.82803
1293.81;  299.000;   44.750;16713.250; 1.81664
1297.84;  282.000;   49.750;16765.250; 1.85716
1301.86;  301.000;   43.750;16807.250; 1.81401
1305.88;  295.000;   58.750;16824.250; 1.85104
1309.90;  307.000;   49.750;16842.250; 1.81476
1313.92;  279.000;   55.750;16828.250; 1.87581
1317.93;  284.000;   65.750;16838.250; 1.88564
1321.94;  268.000;   46.750;16825.250; 1.87987
1325.95;  273.000;   64.750;16797.250; 1.90498
1329.96;  269.000;   63.750;16802.250; 1.91143
1333.96;  259.000;   52.750;16773.250; 1.90886
1337.96;  247.000;   63.750;16776.250; 1.96000
1341.96;  247.000;   46.750;16748.250; 1.92118
1345.96;  226.000;   59.750;16622.250; 1.99836
1349.95;  220.000;   42.750;16410.250; 1.96540
1353.95;  221.000;   67.750;16154.250; 2.02106
1357.94;  221.000;   50.750;15843.250; 1.96736
1361.92;  207.000;   50.750;15571.250; 1.99709
1365.91;  204.000;   46.750;15308.250; 1.98701
1369.89;  195.000;   50.750;15042.250; 2.01673
1373.87;  186.000;   48.750;14460.250; 2.02120
1377.85;  184.000;   60.750;13607.250; 2.04104
1381.82;  157.000;   48.750;12795.250; 2.07096
1385.80;  163.000;   50.750;12441.250; 2.04290
1389.77;  147.000;   54.750;12376.250; 2.12570
1393.74;  130.000;   63.750;12523.250; 2.27431
1397.70;  131.000;   57.750;12861.250; 2.24252
1401.66;  104.000;   57.750;13177.250; 2.45281
1405.62;  109.000;   34.750;13448.250; 2.25685
1409.58;  121.000;   50.750;13653.250; 2.28697
1413.54;  104.000;   50.750;13787.250; 2.41156
1417.49;   87.000;   27.750;13838.250; 2.36752
1421.44;  117.000;   63.750;13894.250; 2.41452
1425.39;  100.000;   54.750;13879.250; 2.48503
1429.33;  112.000;   64.750;13864.250; 2.46546
1433.27;   95.000;   54.750;13809.250; 2.53368
1437.21;  101.000;   48.750;13776.250; 2.41951
1441.15;   96.000;   52.750;13748.250; 2.50059
1445.09;  105.000;   60.750;13691.250; 2.48860
1449.02;   97.000;   57.750;13611.250; 2.53821
1452.95;   95.000;   52.750;13536.250; 2.50398
1456.87;   96.000;   53.750;13439.250; 2.50081
1460.80;   83.000;   43.750;13345.250; 2.53006
1464.72;   90.000;   59.750;13253.250; 2.63963
1468.64;   84.000;   43.750;13131.250; 2.51209
1472.55;   99.000;   63.750;13051.250; 2.56637
1476.47;   93.000;   43.750;12969.250; 2.41904
1480.38;   97.000;   38.750;12870.250; 2.34298
1484.28;  106.000;   54.750;12750.250; 2.39396
1488.19;   93.000;   50.750;12663.250; 2.47497
1492.09;   89.000;   28.750;12533.250; 2.31711
1495.99;   96.000;   58.750;12434.250; 2.52144
1499.89;   98.000;   46.750;12320.250; 2.37927
1503.78;   88.000;   48.750;12228.250; 2.49179
1507.67;  106.000;   52.750;12113.250; 2.35505
1511.56;   78.000;   33.750;11982.250; 2.43140
1515.44;  109.000;   50.750;11884.250; 2.30782
1519.33;  112.000;   48.750;11757.250; 2.26744
1523.21;   95.000;   35.750;11649.250; 2.29227
1527.08;  118.000;   57.750;11506.250; 2.27879
1530.96;  100.000;   39.750;11368.250; 2.27422
1534.83;  114.000;   52.750;11249.250; 2.26198
1538.70;  113.000;   57.750;11082.250; 2.30003
1542.56;  103.000;   28.750;10958.250; 2.16790
1546.42;  100.000;   39.750;10836.250; 2.25333
1550.28;  115.000;   58.750;10683.250; 2.27619
1554.14;  106.000;   39.750;10510.250; 2.19878
1557.99;  106.000;   41.750;10388.250; 2.20692
1561.84;  117.000;   33.750;10234.250; 2.08824
1565.69;  111.000;   40.750;10095.250; 2.15571
1569.54;   99.000;   24.750; 9939.250; 2.12557
1573.38;  106.000;   40.750; 9804.250; 2.17503
1577.22;   98.000;   31.750; 9649.250; 2.16188
1581.05;  100.000;   49.750; 9522.250; 2.27533
1584.89;  117.000;   45.750; 9369.250; 2.11679
1588.72;  107.000;   41.750; 9215.250; 2.14795
1592.54;  104.000;   35.750; 9061.250; 2.12137
1596.37;   94.000;   22.750; 8908.250; 2.09590
1600.19;  111.000;   43.750; 8774.250; 2.11335
1604.01;   96.000;   33.750; 8610.250; 2.13917
1607.82;   99.000;   31.750; 8473.250; 2.09873
1611.63;   93.000;   22.750; 8316.250; 2.07209
1615.44;  110.000;   26.750; 8167.250; 1.99027
1619.25;  103.000;   34.750; 7998.250; 2.06700
1623.05;   97.000;   13.750; 7822.250; 1.97218
1626.85;   97.000;   26.750; 7668.250; 2.03653
1630.64;  116.000;   42.750; 7511.250; 2.00843
1634.44;   96.000;   26.750; 7307.250; 2.02174
1638.23;   99.000;   18.750; 7114.250; 1.94654
1642.01;   92.000;   39.750; 6938.250; 2.12067
1645.80;  104.000;   42.750; 6743.250; 2.03900
1649.58;   79.000;   38.750; 6531.250; 2.20765
1653.35;   99.000;   44.750; 6309.250; 2.06249
1657.13;   73.000;   36.750; 6064.250; 2.22083
1660.90;   79.000;   34.750; 5808.250; 2.11553
1664.67;   89.000;   28.750; 5491.250; 1.95743
1668.43;   85.000;   24.750; 5119.250; 1.92714
1672.19;   87.000;   35.750; 4656.250; 1.95500
1675.95;   66.000;   31.750; 4113.250; 2.07616
1679.70;   73.000;   46.750; 3563.250; 2.12698
1683.46;   70.000;   23.750; 3047.250; 1.81540
1687.20;   66.000;   39.750; 2617.250; 1.99207
1690.95;   55.000;   36.750; 2243.250; 2.08244
1694.69;   76.000;   56.750; 1964.250; 1.99603
1698.43;   48.000;   22.750; 1699.250; 1.82214
1702.16;   70.000;   44.750; 1533.250; 1.77049
1705.89;   62.000;   30.750; 1372.250; 1.63274
1709.62;   41.000;   25.750; 1277.250; 1.91416
1713.35;   57.000;   17.750; 1187.250; 1.47416
1717.07;   51.000;   42.750; 1123.250; 2.11717
1720.79;   52.000;   41.750; 1064.250; 1.99894
1724.50;   58.000;   44.750; 1019.250; 1.86657
1728.21;   62.000;   29.750;  974.250; 1.46667
1731.92;   50.000;   25.750;  931.250; 1.57218
1735.63;   49.000;   34.750;  925.250; 1.79582
1739.33;   55.000;   23.750;  909.250; 1.45234
1743.02;   66.000;   21.750;  865.250; 1.28017
1746.72;   56.000;   33.750;  872.250; 1.57617
1750.41;   74.000;   37.750;  865.250; 1.35846
1754.10;   66.000;   44.750;  846.250; 1.57654

