
Integration time [ms]:  10.000
Averaging Nr. [scans]: 10
Smoothing Nr. [pixels]: 0
Data measured with spectrometer [name]: 1911294U1
Wave   ;Sample   ;Dark     ;Reference;Absorbance
[nm]   ;[counts] ;[counts] ;[counts] ;[A.U]

 860.61; 1624.500; 1551.700; 1907.800; 0.68944
 864.82; 1571.100; 1505.600; 1955.500; 0.83687
 869.02; 1586.000; 1514.900; 2034.000; 0.86338
 873.23; 1607.500; 1530.300; 2122.800; 0.88507
 877.43; 1566.600; 1494.800; 2149.500; 0.95992
 881.63; 1609.100; 1530.800; 2256.000; 0.96670
 885.83; 1583.500; 1499.600; 2300.600; 0.97987
 890.03; 1589.700; 1501.000; 2363.200; 0.98768
 894.23; 1585.700; 1498.400; 2434.200; 1.03017
 898.42; 1576.300; 1490.200; 2489.500; 1.06469
 902.62; 1616.100; 1522.400; 2605.100; 1.06277
 906.81; 1582.700; 1488.700; 2644.500; 1.08975
 911.00; 1590.900; 1494.400; 2732.000; 1.10805
 915.19; 1598.400; 1503.000; 2840.700; 1.14681
 919.38; 1647.700; 1541.400; 2988.000; 1.13382
 923.57; 1589.600; 1477.600; 3060.100; 1.15013
 927.76; 1631.100; 1511.200; 3297.300; 1.17309
 931.94; 1620.600; 1493.300; 3511.600; 1.20016
 936.13; 1653.400; 1516.000; 3764.700; 1.21394
 940.31; 1627.800; 1484.900; 3931.100; 1.23346
 944.49; 1700.600; 1547.000; 4163.000; 1.23125
 948.67; 1679.100; 1518.900; 4297.000; 1.23909
 952.85; 1656.700; 1493.400; 4427.000; 1.25441
 957.03; 1672.100; 1501.100; 4604.000; 1.25877
 961.21; 1697.100; 1518.200; 4778.500; 1.26065
 965.38; 1691.600; 1507.600; 4921.400; 1.26842
 969.55; 1688.100; 1505.800; 5072.200; 1.29144
 973.73; 1715.100; 1520.500; 5253.800; 1.28295
 977.90; 1713.200; 1511.100; 5413.200; 1.28573
 982.06; 1726.700; 1518.800; 5592.700; 1.29216
 986.23; 1723.200; 1506.000; 5748.000; 1.29071
 990.40; 1742.600; 1519.400; 5941.100; 1.29690
 994.56; 1768.600; 1538.400; 6129.700; 1.29983
 998.72; 1773.600; 1541.900; 6290.500; 1.31164
1002.88; 1746.800; 1510.200; 6415.300; 1.31663
1007.04; 1769.700; 1529.400; 6579.000; 1.32250
1011.20; 1771.000; 1519.900; 6717.500; 1.31596
1015.36; 1797.300; 1543.200; 6867.300; 1.32124
1019.51; 1762.900; 1510.000; 6947.400; 1.33244
1023.67; 1791.500; 1530.900; 7080.200; 1.32826
1027.82; 1778.600; 1512.800; 7172.800; 1.32826
1031.97; 1793.700; 1525.500; 7291.600; 1.33242
1036.12; 1792.200; 1523.900; 7384.200; 1.33930
1040.27; 1797.700; 1520.100; 7490.500; 1.33258
1044.41; 1803.900; 1522.700; 7585.300; 1.33364
1048.56; 1819.300; 1534.900; 7704.000; 1.33629
1052.70; 1809.600; 1519.500; 7789.500; 1.33472
1056.84; 1815.900; 1529.400; 7905.400; 1.34742
1060.98; 1790.800; 1501.100; 7985.000; 1.34989
1065.11; 1818.400; 1513.900; 8119.500; 1.33632
1069.25; 1834.000; 1526.700; 8264.000; 1.34092
1073.38; 1843.000; 1527.800; 8408.100; 1.33902
1077.52; 1864.100; 1546.500; 8548.800; 1.34336
1081.65; 1851.000; 1532.900; 8683.900; 1.35180
1085.77; 1854.900; 1527.000; 8829.600; 1.34774
1089.90; 1866.600; 1533.700; 8986.900; 1.35003
1094.03; 1840.400; 1500.400; 9113.600; 1.35009
1098.15; 1888.500; 1546.400; 9322.700; 1.35662
1102.27; 1837.600; 1489.800; 9441.600; 1.35914
1106.39; 1882.300; 1527.600; 9661.400; 1.36043
1110.51; 1918.800; 1551.400; 9878.200; 1.35534
1114.63; 1871.500; 1500.800;10067.700; 1.36380
1118.74; 1941.100; 1553.000;10360.700; 1.35592
1122.85; 1921.000; 1530.700;10522.800; 1.36246
1126.96; 1898.500; 1503.600;10642.400; 1.36440
1131.07; 1960.700; 1554.700;10786.500; 1.35676
1135.18; 1907.200; 1504.600;10802.100; 1.36349
1139.29; 1920.300; 1516.000;10868.600; 1.36423
1143.39; 1943.900; 1538.200;10912.400; 1.36373
1147.49; 1923.800; 1518.500;10897.900; 1.36440
1151.59; 1921.500; 1515.000;10914.000; 1.36402
1155.69; 1952.600; 1541.600;10966.800; 1.36045
1159.78; 1908.300; 1502.700;10951.200; 1.36726
1163.88; 1951.600; 1536.300;11019.900; 1.35861
1167.97; 1958.500; 1537.000;11049.100; 1.35348
1172.06; 1929.400; 1514.600;11052.300; 1.36160
1176.15; 1923.300; 1511.400;11073.900; 1.36578
1180.23; 1969.300; 1549.600;11155.900; 1.35962
1184.32; 1912.400; 1494.700;11140.100; 1.36346
1188.40; 1931.600; 1514.000;11201.700; 1.36546
1192.48; 1940.200; 1515.300;11260.500; 1.36050
1196.56; 1947.300; 1521.200;11309.800; 1.36121
1200.64; 1969.700; 1534.600;11380.300; 1.35466
1204.71; 1941.900; 1514.200;11415.100; 1.36454
1208.78; 1954.600; 1522.400;11476.100; 1.36230
1212.85; 1977.800; 1547.900;11559.600; 1.36714
1216.92; 1907.800; 1476.200;11533.500; 1.36740
1220.99; 1969.200; 1534.300;11668.800; 1.36741
1225.05; 1968.400; 1527.500;11719.100; 1.36390
1229.11; 1945.200; 1506.200;11777.200; 1.36915
1233.17; 1985.000; 1537.300;11867.500; 1.36312
1237.23; 1978.000; 1535.100;11935.000; 1.37072
1241.29; 1982.200; 1531.200;11992.800; 1.36542
1245.34; 2011.100; 1560.000;12107.000; 1.36886
1249.39; 1953.900; 1500.000;12117.900; 1.36908
1253.44; 1978.300; 1518.900;12212.500; 1.36693
1257.49; 2016.500; 1552.800;12334.500; 1.36645
1261.53; 1983.300; 1518.900;12369.900; 1.36858
1265.58; 1990.900; 1525.900;12452.600; 1.37104
1269.62; 1987.800; 1519.600;12529.800; 1.37136
1273.65; 1995.600; 1519.900;12603.400; 1.36734
1277.69; 1990.700; 1518.000;12681.800; 1.37323
1281.72; 2012.300; 1530.100;12773.400; 1.36767
1285.76; 2012.300; 1529.900;12851.500; 1.37050
1289.79; 2008.100; 1520.800;12909.400; 1.36867
1293.81; 1996.300; 1511.100;12974.600; 1.37340
1297.84; 1975.500; 1490.200;13004.900; 1.37524
1301.86; 2036.300; 1546.100;13137.300; 1.37376
1305.88; 2012.700; 1520.800;13163.800; 1.37419
1309.90; 2030.400; 1541.300;13243.300; 1.37886
1313.92; 1993.600; 1497.800;13236.900; 1.37433
1317.93; 2026.200; 1527.400;13321.700; 1.37375
1321.94; 2016.800; 1516.400;13349.300; 1.37377
1325.95; 2021.200; 1515.800;13392.300; 1.37105
1329.96; 2039.200; 1527.200;13449.200; 1.36708
1333.96; 2037.300; 1523.500;13501.700; 1.36760
1337.96; 2034.700; 1525.700;13575.100; 1.37425
1341.96; 2047.700; 1530.100;13604.900; 1.36789
1345.96; 2024.400; 1514.800;13535.100; 1.37269
1349.95; 2003.000; 1504.900;13357.000; 1.37648
1353.95; 1990.400; 1500.800;13080.300; 1.37385
1357.94; 1990.700; 1519.000;12810.900; 1.37910
1361.92; 1986.100; 1525.200;12577.700; 1.37985
1365.91; 1967.400; 1509.100;12495.800; 1.37972
1369.89; 1959.900; 1500.900;12522.200; 1.38042
1373.87; 1945.500; 1483.400;12502.700; 1.37742
1377.85; 1999.800; 1541.800;12256.400; 1.36911
1381.82; 1932.200; 1495.800;11839.800; 1.37480
1385.80; 1979.200; 1542.900;11856.600; 1.37363
1389.77; 1969.400; 1524.900;11869.500; 1.36684
1393.74; 1945.200; 1509.900;11804.200; 1.37381
1397.70; 1993.700; 1552.300;11918.000; 1.37077
1401.66; 1966.900; 1522.100;11986.800; 1.37156
1405.62; 1948.900; 1502.000;12055.500; 1.37319
1409.58; 1984.400; 1528.700;12203.600; 1.36968
1413.54; 1979.000; 1519.400;12293.200; 1.36999
1417.49; 1937.600; 1476.800;12292.900; 1.37056
1421.44; 1990.500; 1523.100;12384.600; 1.36620
1425.39; 1973.900; 1510.500;12382.800; 1.37037
1429.33; 1995.900; 1525.700;12395.900; 1.36395
1433.27; 1988.300; 1523.700;12370.200; 1.36821
1437.21; 1964.500; 1502.800;12323.500; 1.36990
1441.15; 2007.700; 1543.700;12339.600; 1.36674
1445.09; 1995.300; 1531.000;12292.800; 1.36509
1449.02; 1953.300; 1489.700;12200.500; 1.36368
1452.95; 1992.400; 1529.700;12230.100; 1.36410
1456.87; 1991.000; 1524.100;12175.900; 1.35820
1460.80; 1975.400; 1510.600;12112.200; 1.35811
1464.72; 1956.400; 1502.500;12023.800; 1.36511
1468.64; 1955.500; 1502.300;11961.600; 1.36321
1472.55; 1969.700; 1518.100;11913.700; 1.36210
1476.47; 1981.600; 1531.300;11884.300; 1.36156
1480.38; 1967.600; 1517.300;11801.000; 1.35865
1484.28; 1979.900; 1535.000;11762.600; 1.36151
1488.19; 1964.700; 1522.200;11690.100; 1.36132
1492.09; 1930.700; 1489.900;11596.700; 1.36037
1495.99; 1947.500; 1506.600;11539.600; 1.35709
1499.89; 1956.700; 1513.300;11504.200; 1.35281
1503.78; 1950.300; 1515.200;11427.600; 1.35759
1507.67; 1971.300; 1539.800;11381.400; 1.35808
1511.56; 1926.500; 1498.300;11268.800; 1.35827
1515.44; 1956.900; 1525.700;11237.600; 1.35263
1519.33; 1936.200; 1515.200;11135.600; 1.35891
1523.21; 1946.400; 1523.900;11078.700; 1.35439
1527.08; 1935.000; 1519.400;10990.300; 1.35772
1530.96; 1920.800; 1500.300;10886.000; 1.34870
1534.83; 1959.000; 1544.300;10845.200; 1.35079
1538.70; 1914.500; 1508.600;10715.900; 1.35571
1542.56; 1897.500; 1500.900;10619.900; 1.36159
1546.42; 1919.500; 1517.300;10554.500; 1.35159
1550.28; 1911.800; 1513.400;10453.100; 1.35100
1554.14; 1907.500; 1508.800;10345.500; 1.34564
1557.99; 1917.700; 1525.700;10266.900; 1.34828
1561.84; 1884.400; 1498.400;10122.900; 1.34915
1565.69; 1894.700; 1516.200;10052.800; 1.35322
1569.54; 1885.600; 1503.300; 9933.900; 1.34345
1573.38; 1875.700; 1501.700; 9824.400; 1.34739
1577.22; 1898.300; 1527.000; 9752.100; 1.34542
1581.05; 1876.800; 1512.400; 9625.200; 1.34759
1584.89; 1887.000; 1524.900; 9522.100; 1.34411
1588.72; 1877.200; 1517.700; 9409.100; 1.34146
1592.54; 1852.600; 1506.200; 9274.600; 1.35075
1596.37; 1873.400; 1517.200; 9177.600; 1.33256
1600.19; 1853.600; 1510.100; 9050.400; 1.34146
1604.01; 1825.900; 1486.400; 8899.400; 1.33915
1607.82; 1838.100; 1509.800; 8796.900; 1.34628
1611.63; 1807.500; 1480.100; 8624.900; 1.33891
1615.44; 1881.000; 1553.300; 8575.400; 1.33099
1619.25; 1797.800; 1486.200; 8361.300; 1.34368
1623.05; 1792.100; 1479.000; 8208.600; 1.33231
1626.85; 1818.900; 1513.000; 8103.300; 1.33333
1630.64; 1828.300; 1524.000; 7969.700; 1.32597
1634.44; 1804.700; 1504.600; 7800.200; 1.32177
1638.23; 1797.400; 1503.300; 7652.600; 1.32033
1642.01; 1790.800; 1506.800; 7500.000; 1.32434
1645.80; 1779.000; 1499.800; 7336.400; 1.32024
1649.58; 1777.600; 1507.600; 7165.100; 1.32126
1653.35; 1823.900; 1554.000; 7043.000; 1.30829
1657.13; 1745.700; 1486.500; 6816.300; 1.31308
1660.90; 1753.000; 1500.200; 6658.700; 1.30975
1664.67; 1731.600; 1492.900; 6464.500; 1.31864
1668.43; 1740.900; 1506.200; 6271.300; 1.30756
1672.19; 1756.300; 1522.100; 6011.600; 1.28261
1675.95; 1704.000; 1493.800; 5613.400; 1.29222
1679.70; 1732.400; 1530.900; 5235.900; 1.26451
1683.46; 1680.000; 1497.800; 4742.900; 1.25068
1687.20; 1674.300; 1511.400; 4295.600; 1.23278
1690.95; 1647.500; 1504.400; 3867.300; 1.21781
1694.69; 1644.700; 1514.400; 3526.700; 1.18875
1698.43; 1600.700; 1482.500; 3185.600; 1.15862
1702.16; 1608.300; 1497.600; 2968.200; 1.12335
1705.89; 1601.600; 1499.300; 2779.100; 1.09727
1709.62; 1588.700; 1493.100; 2618.100; 1.07069
1713.35; 1623.300; 1522.600; 2525.400; 0.99818
1717.07; 1579.400; 1492.000; 2393.400; 1.01341
1720.79; 1597.100; 1513.300; 2338.300; 0.99321
1724.50; 1599.500; 1514.000; 2272.300; 0.94787
1728.21; 1577.700; 1499.400; 2201.400; 0.95258
1731.92; 1573.800; 1495.900; 2152.500; 0.92576
1735.63; 1558.700; 1483.800; 2109.800; 0.92209
1739.33; 1603.700; 1525.100; 2113.700; 0.87440
1743.02; 1575.600; 1493.200; 2053.800; 0.83273
1746.72; 1568.700; 1494.300; 2031.700; 0.85872
1750.41; 1577.600; 1502.900; 2014.600; 0.83569
1754.10; 1587.500; 1515.500; 2011.500; 0.83815

