
Integration time [ms]:   3.780
Averaging Nr. [scans]: 1
Smoothing Nr. [pixels]: 0
Data measured with spectrometer [name]: 1911294U1
Wave   ;Sample   ;Dark     ;Reference;Absorbance
[nm]   ;[counts] ;[counts] ;[counts] ;[A.U]

 860.61;  127.500;   67.750;  833.250; 1.10761
 864.82;  135.500;   49.750;  998.250; 1.04380
 869.02;  171.500;   59.750; 1169.250; 0.99688
 873.23;  162.500;   54.750; 1288.250; 1.05872
 877.43;  179.500;   53.750; 1415.250; 1.03451
 881.63;  202.500;   54.750; 1540.250; 1.00235
 885.83;  212.500;   49.750; 1684.250; 1.00186
 890.03;  206.500;   28.750; 1796.250; 0.99755
 894.23;  218.500;   40.750; 1929.250; 1.02631
 898.42;  246.500;   37.750; 2071.250; 0.98862
 902.62;  252.500;   56.750; 2213.250; 1.04205
 906.81;  263.500;   35.750; 2337.250; 1.00455
 911.00;  272.500;   53.750; 2523.250; 1.05266
 915.19;  296.500;   45.750; 2712.250; 1.02670
 919.38;  316.500;   47.750; 2963.250; 1.03536
 923.57;  365.500;   53.750; 3292.250; 1.01654
 927.76;  380.500;   40.750; 3728.250; 1.03557
 931.94;  437.500;   39.750; 4163.250; 1.01566
 936.13;  477.500;   53.750; 4579.250; 1.02856
 940.31;  493.500;   50.750; 4873.250; 1.03711
 944.49;  531.500;   63.750; 5167.250; 1.03785
 948.67;  545.500;   49.750; 5411.250; 1.03402
 952.85;  543.500;   50.750; 5679.250; 1.05777
 957.03;  601.500;   47.750; 5965.250; 1.02882
 961.21;  603.500;   58.750; 6236.250; 1.05462
 965.38;  624.500;   44.750; 6471.250; 1.04473
 969.55;  641.500;   37.750; 6719.250; 1.04402
 973.73;  680.500;   56.750; 6971.250; 1.04475
 977.90;  679.500;   42.750; 7222.250; 1.05213
 982.06;  716.500;   44.750; 7469.250; 1.04346
 986.23;  733.500;   51.750; 7739.250; 1.05216
 990.40;  763.500;   61.750; 7985.250; 1.05273
 994.56;  779.500;   65.750; 8243.250; 1.05907
 998.72;  808.500;   58.750; 8450.250; 1.04892
1002.88;  823.500;   57.750; 8670.250; 1.05104
1007.04;  825.500;   52.750; 8879.250; 1.05775
1011.20;  854.500;   49.750; 9068.250; 1.04947
1015.36;  876.500;   45.750; 9257.250; 1.04486
1019.51;  885.500;   60.750; 9402.250; 1.05409
1023.67;  904.500;   69.750; 9574.250; 1.05637
1027.82;  909.500;   61.750; 9729.250; 1.05705
1031.97;  932.500;   55.750; 9851.250; 1.04815
1036.12;  959.500;   49.750;10022.250; 1.03988
1040.27;  953.500;   61.750;10174.250; 1.05462
1044.41;  975.500;   73.750;10320.250; 1.05549
1048.56;  987.500;   53.750;10468.250; 1.04741
1052.70;  999.500;   58.750;10629.250; 1.05062
1056.84; 1010.500;   47.750;10798.250; 1.04792
1060.98; 1037.500;   67.750;10996.250; 1.05190
1065.11; 1066.500;   63.750;11181.250; 1.04481
1069.25; 1058.500;   63.750;11391.250; 1.05642
1073.38; 1100.500;   56.750;11632.250; 1.04494
1077.52; 1124.500;   70.750;11862.250; 1.04883
1081.65; 1129.500;   62.750;12105.250; 1.05265
1085.77; 1158.500;   60.750;12352.250; 1.04910
1089.90; 1164.500;   56.750;12603.250; 1.05408
1094.03; 1185.500;   65.750;12857.250; 1.05780
1098.15; 1223.500;   68.750;13146.250; 1.05404
1102.27; 1219.500;   66.750;13436.250; 1.06438
1106.39; 1270.500;   69.750;13733.250; 1.05611
1110.51; 1285.500;   69.750;14055.250; 1.06083
1114.63; 1299.500;   49.750;14464.250; 1.06198
1118.74; 1348.500;   73.750;14874.250; 1.06485
1122.85; 1376.500;   70.750;15167.250; 1.06302
1126.96; 1370.500;   61.750;15350.250; 1.06751
1131.07; 1373.500;   57.750;15457.250; 1.06833
1135.18; 1334.500;   63.750;15545.250; 1.08575
1139.29; 1333.500;   45.750;15604.250; 1.08214
1143.39; 1319.500;   62.750;15613.250; 1.09250
1147.49; 1276.500;   71.750;15592.250; 1.11001
1151.59; 1251.500;   71.750;15618.250; 1.11984
1155.69; 1232.500;   64.750;15618.250; 1.12448
1159.78; 1217.500;   61.750;15619.250; 1.12908
1163.88; 1228.500;   66.750;15654.250; 1.12766
1167.97; 1199.500;   60.750;15657.250; 1.13660
1172.06; 1198.500;   60.750;15668.250; 1.13729
1176.15; 1191.500;   53.750;15670.250; 1.13754
1180.23; 1201.500;   59.750;15679.250; 1.13610
1184.32; 1173.500;   50.750;15690.250; 1.14394
1188.40; 1176.500;   57.750;15712.250; 1.14591
1192.48; 1194.500;   55.750;15725.250; 1.13863
1196.56; 1190.500;   53.750;15754.250; 1.14025
1200.64; 1199.500;   72.750;15783.250; 1.14436
1204.71; 1193.500;   50.750;15806.250; 1.13948
1208.78; 1215.500;   69.750;15849.250; 1.13900
1212.85; 1208.500;   54.750;15854.250; 1.13653
1216.92; 1192.500;   37.750;15840.250; 1.13624
1220.99; 1216.500;   49.750;15897.250; 1.13298
1225.05; 1239.500;   60.750;15920.250; 1.12887
1229.11; 1226.500;   53.750;15924.250; 1.13139
1233.17; 1227.500;   58.750;15926.250; 1.13279
1237.23; 1231.500;   49.750;15943.250; 1.12869
1241.29; 1235.500;   51.750;15960.250; 1.12837
1245.34; 1254.500;   79.750;16029.250; 1.13280
1249.39; 1248.500;   55.750;16081.250; 1.12826
1253.44; 1246.500;   36.750;16122.250; 1.12374
1257.49; 1266.500;   73.750;16225.250; 1.13166
1261.53; 1270.500;   40.750;16273.250; 1.12057
1265.58; 1278.500;   46.750;16338.250; 1.12144
1269.62; 1275.500;   46.750;16412.250; 1.12447
1273.65; 1274.500;   55.750;16472.250; 1.12937
1277.69; 1298.500;   53.750;16552.250; 1.12236
1281.72; 1286.500;   65.750;16612.250; 1.13208
1285.76; 1282.500;   66.750;16662.250; 1.13515
1289.79; 1282.500;   56.750;16697.250; 1.13276
1293.81; 1274.500;   44.750;16713.250; 1.13208
1297.84; 1272.500;   49.750;16765.250; 1.13578
1301.86; 1266.500;   43.750;16807.250; 1.13703
1305.88; 1268.500;   58.750;16824.250; 1.14172
1309.90; 1254.500;   49.750;16842.250; 1.14422
1313.92; 1230.500;   55.750;16828.250; 1.15465
1317.93; 1215.500;   65.750;16838.250; 1.16399
1321.94; 1198.500;   46.750;16825.250; 1.16339
1325.95; 1181.500;   64.750;16797.250; 1.17560
1329.96; 1160.500;   63.750;16802.250; 1.18361
1333.96; 1116.500;   52.750;16773.250; 1.19641
1337.96; 1094.500;   63.750;16776.250; 1.20989
1341.96; 1072.500;   46.750;16748.250; 1.21171
1345.96; 1033.500;   59.750;16622.250; 1.23068
1349.95;  999.500;   42.750;16410.250; 1.23318
1353.95;  957.500;   67.750;16154.250; 1.25719
1357.94;  924.500;   50.750;15843.250; 1.25706
1361.92;  889.500;   50.750;15571.250; 1.26727
1365.91;  853.500;   46.750;15308.250; 1.27686
1369.89;  808.500;   50.750;15042.250; 1.29632
1373.87;  753.500;   48.750;14460.250; 1.31067
1377.85;  665.500;   60.750;13607.250; 1.35025
1381.82;  577.500;   48.750;12795.250; 1.38214
1385.80;  503.500;   50.750;12441.250; 1.43723
1389.77;  461.500;   54.750;12376.250; 1.48134
1393.74;  383.500;   63.750;12523.250; 1.59069
1397.70;  323.500;   57.750;12861.250; 1.68286
1401.66;  265.500;   57.750;13177.250; 1.80038
1405.62;  238.500;   34.750;13448.250; 1.81844
1409.58;  197.500;   50.750;13653.250; 1.96704
1413.54;  174.500;   50.750;13787.250; 2.04533
1417.49;  154.500;   27.750;13838.250; 2.03726
1421.44;  143.500;   63.750;13894.250; 2.23911
1425.39;  134.500;   54.750;13879.250; 2.23892
1429.33;  141.500;   64.750;13864.250; 2.25478
1433.27;  128.500;   54.750;13809.250; 2.27068
1437.21;  120.500;   48.750;13776.250; 2.28177
1441.15;  124.500;   52.750;13748.250; 2.28076
1445.09;  124.500;   60.750;13691.250; 2.33003
1449.02;  111.500;   57.750;13611.250; 2.40167
1452.95;  117.500;   52.750;13536.250; 2.31856
1456.87;  117.500;   53.750;13439.250; 2.32215
1460.80;  109.500;   43.750;13345.250; 2.30600
1464.72;  121.500;   59.750;13253.250; 2.32972
1468.64;  124.500;   43.750;13131.250; 2.20971
1472.55;  119.500;   63.750;13051.250; 2.36728
1476.47;  113.500;   43.750;12969.250; 2.26790
1480.38;  111.500;   38.750;12870.250; 2.24644
1484.28;  125.500;   54.750;12750.250; 2.25392
1488.19;  137.500;   50.750;12663.250; 2.16253
1492.09;  120.500;   28.750;12533.250; 2.13446
1495.99;  139.500;   58.750;12434.250; 2.18542
1499.89;  154.500;   46.750;12320.250; 2.05655
1503.78;  169.500;   48.750;12228.250; 2.00374
1507.67;  175.500;   52.750;12113.250; 1.99234
1511.56;  161.500;   33.750;11982.250; 1.97095
1515.44;  182.500;   50.750;11884.250; 1.95336
1519.33;  198.500;   48.750;11757.250; 1.89313
1523.21;  191.500;   35.750;11649.250; 1.87254
1527.08;  204.500;   57.750;11506.250; 1.89217
1530.96;  209.500;   39.750;11368.250; 1.82436
1534.83;  222.500;   52.750;11249.250; 1.81927
1538.70;  224.500;   57.750;11082.250; 1.82029
1542.56;  232.500;   28.750;10958.250; 1.72950
1546.42;  227.500;   39.750;10836.250; 1.75970
1550.28;  257.500;   58.750;10683.250; 1.72800
1554.14;  232.500;   39.750;10510.250; 1.73497
1557.99;  251.500;   41.750;10388.250; 1.69309
1561.84;  249.500;   33.750;10234.250; 1.67467
1565.69;  266.500;   40.750;10095.250; 1.64873
1569.54;  267.500;   24.750; 9939.250; 1.61111
1573.38;  273.500;   40.750; 9804.250; 1.62272
1577.22;  254.500;   31.750; 9649.250; 1.63524
1581.05;  283.500;   49.750; 9522.250; 1.60771
1584.89;  286.500;   45.750; 9369.250; 1.58801
1588.72;  280.500;   41.750; 9215.250; 1.58459
1592.54;  269.500;   35.750; 9061.250; 1.58672
1596.37;  278.500;   22.750; 8908.250; 1.54087
1600.19;  298.500;   43.750; 8774.250; 1.53492
1604.01;  280.500;   33.750; 8610.250; 1.54105
1607.82;  287.500;   31.750; 8473.250; 1.51860
1611.63;  271.500;   22.750; 8316.250; 1.52297
1615.44;  282.500;   26.750; 8167.250; 1.50284
1619.25;  272.500;   34.750; 7998.250; 1.52498
1623.05;  277.500;   13.750; 7822.250; 1.47138
1626.85;  284.500;   26.750; 7668.250; 1.47198
1630.64;  280.500;   42.750; 7511.250; 1.49711
1634.44;  280.500;   26.750; 7307.250; 1.45776
1638.23;  277.500;   18.750; 7114.250; 1.43810
1642.01;  257.500;   39.750; 6938.250; 1.50080
1645.80;  265.500;   42.750; 6743.250; 1.47829
1649.58;  259.500;   38.750; 6531.250; 1.46851
1653.35;  261.500;   44.750; 6309.250; 1.46093
1657.13;  241.500;   36.750; 6064.250; 1.46891
1660.90;  241.500;   34.750; 5808.250; 1.44599
1664.67;  229.500;   28.750; 5491.250; 1.43474
1668.43;  218.500;   24.750; 5119.250; 1.41986
1672.19;  211.500;   35.750; 4656.250; 1.41979
1675.95;  183.500;   31.750; 4113.250; 1.42969
1679.70;  169.500;   46.750; 3563.250; 1.45709
1683.46;  147.500;   23.750; 3047.250; 1.38796
1687.20;  136.500;   39.750; 2617.250; 1.42555
1690.95;  136.500;   36.750; 2243.250; 1.34479
1694.69;  132.500;   56.750; 1964.250; 1.40108
1698.43;  123.500;   22.750; 1699.250; 1.22116
1702.16;  110.500;   44.750; 1533.250; 1.35485
1705.89;  111.500;   30.750; 1372.250; 1.22045
1709.62;  103.500;   25.750; 1277.250; 1.20673
1713.35;   97.500;   17.750; 1187.250; 1.16627
1717.07;  104.500;   42.750; 1123.250; 1.24299
1720.79;  104.500;   41.750; 1064.250; 1.21205
1724.50;  112.500;   44.750; 1019.250; 1.15787
1728.21;   96.500;   29.750;  974.250; 1.15075
1731.92;   87.500;   25.750;  931.250; 1.16625
1735.63;   97.500;   34.750;  925.250; 1.15202
1739.33;  105.500;   23.750;  909.250; 1.03470
1743.02;  103.500;   21.750;  865.250; 1.01360
1746.72;   93.500;   33.750;  872.250; 1.14717
1750.41;  114.500;   37.750;  865.250; 1.03269
1754.10;   99.500;   44.750;  846.250; 1.16552

