
Integration time [ms]:   3.780
Averaging Nr. [scans]: 1
Smoothing Nr. [pixels]: 0
Data measured with spectrometer [name]: 1911294U1
Wave   ;Sample   ;Dark     ;Reference;Absorbance
[nm]   ;[counts] ;[counts] ;[counts] ;[A.U]

 860.61;  110.750;   67.750;  833.250; 1.25048
 864.82;  117.750;   49.750;  998.250; 1.14453
 869.02;  135.750;   59.750; 1169.250; 1.16431
 873.23;  154.750;   54.750; 1288.250; 1.09114
 877.43;  142.750;   53.750; 1415.250; 1.18463
 881.63;  154.750;   54.750; 1540.250; 1.17187
 885.83;  162.750;   49.750; 1684.250; 1.16031
 890.03;  161.750;   28.750; 1796.250; 1.12351
 894.23;  170.750;   40.750; 1929.250; 1.16217
 898.42;  190.750;   37.750; 2071.250; 1.12355
 902.62;  200.750;   56.750; 2213.250; 1.17539
 906.81;  206.750;   35.750; 2337.250; 1.12901
 911.00;  216.750;   53.750; 2523.250; 1.18042
 915.19;  238.750;   45.750; 2712.250; 1.14038
 919.38;  258.750;   47.750; 2963.250; 1.14043
 923.57;  285.750;   53.750; 3292.250; 1.14486
 927.76;  290.750;   40.750; 3728.250; 1.16879
 931.94;  333.750;   39.750; 4163.250; 1.14692
 936.13;  360.750;   53.750; 4579.250; 1.16853
 940.31;  370.750;   50.750; 4873.250; 1.17812
 944.49;  406.750;   63.750; 5167.250; 1.17257
 948.67;  408.750;   49.750; 5411.250; 1.17419
 952.85;  416.750;   50.750; 5679.250; 1.18691
 957.03;  437.750;   47.750; 5965.250; 1.18107
 961.21;  456.750;   58.750; 6236.250; 1.19093
 965.38;  474.750;   44.750; 6471.250; 1.17451
 969.55;  469.750;   37.750; 6719.250; 1.18939
 973.73;  507.750;   56.750; 6971.250; 1.18558
 977.90;  506.750;   42.750; 7222.250; 1.18958
 982.06;  541.750;   44.750; 7469.250; 1.17431
 986.23;  546.750;   51.750; 7739.250; 1.19118
 990.40;  574.750;   61.750; 7985.250; 1.18880
 994.56;  583.750;   65.750; 8243.250; 1.19829
 998.72;  594.750;   58.750; 8450.250; 1.19467
1002.88;  604.750;   57.750; 8670.250; 1.19714
1007.04;  620.750;   52.750; 8879.250; 1.19144
1011.20;  634.750;   49.750; 9068.250; 1.18798
1015.36;  647.750;   45.750; 9257.250; 1.18473
1019.51;  670.750;   60.750; 9402.250; 1.18509
1023.67;  677.750;   69.750; 9574.250; 1.19403
1027.82;  679.750;   61.750; 9729.250; 1.19433
1031.97;  702.750;   55.750; 9851.250; 1.18012
1036.12;  701.750;   49.750;10022.250; 1.18456
1040.27;  710.750;   61.750;10174.250; 1.19261
1044.41;  736.750;   73.750;10320.250; 1.18906
1048.56;  737.750;   53.750;10468.250; 1.18258
1052.70;  750.750;   58.750;10629.250; 1.18399
1056.84;  764.750;   47.750;10798.250; 1.17591
1060.98;  762.750;   67.750;10996.250; 1.19658
1065.11;  793.750;   63.750;11181.250; 1.18268
1069.25;  802.750;   63.750;11391.250; 1.18549
1073.38;  818.750;   56.750;11632.250; 1.18158
1077.52;  835.750;   70.750;11862.250; 1.18791
1081.65;  858.750;   62.750;12105.250; 1.17980
1085.77;  844.750;   60.750;12352.250; 1.19529
1089.90;  870.750;   56.750;12603.250; 1.18790
1094.03;  892.750;   65.750;12857.250; 1.18942
1098.15;  897.750;   68.750;13146.250; 1.19797
1102.27;  918.750;   66.750;13436.250; 1.19568
1106.39;  941.750;   69.750;13733.250; 1.19505
1110.51;  952.750;   69.750;14055.250; 1.19972
1114.63;  981.750;   49.750;14464.250; 1.18938
1118.74; 1010.750;   73.750;14874.250; 1.19854
1122.85; 1022.750;   70.750;15167.250; 1.20024
1126.96; 1022.750;   61.750;15350.250; 1.20164
1131.07; 1019.750;   57.750;15457.250; 1.20433
1135.18;  996.750;   63.750;15545.250; 1.21993
1139.29;  970.750;   45.750;15604.250; 1.22583
1143.39;  958.750;   62.750;15613.250; 1.23944
1147.49;  926.750;   71.750;15592.250; 1.25894
1151.59;  913.750;   71.750;15618.250; 1.26632
1155.69;  905.750;   64.750;15618.250; 1.26703
1159.78;  892.750;   61.750;15619.250; 1.27234
1163.88;  898.750;   66.750;15654.250; 1.27265
1167.97;  868.750;   60.750;15657.250; 1.28562
1172.06;  854.750;   60.750;15668.250; 1.29351
1176.15;  860.750;   53.750;15670.250; 1.28671
1180.23;  879.750;   59.750;15679.250; 1.27985
1184.32;  836.750;   50.750;15690.250; 1.29880
1188.40;  851.750;   57.750;15712.250; 1.29482
1192.48;  862.750;   55.750;15725.250; 1.28818
1196.56;  863.750;   53.750;15754.250; 1.28743
1200.64;  871.750;   72.750;15783.250; 1.29364
1204.71;  861.750;   50.750;15806.250; 1.28841
1208.78;  881.750;   69.750;15849.250; 1.28854
1212.85;  876.750;   54.750;15854.250; 1.28377
1216.92;  861.750;   37.750;15840.250; 1.28280
1220.99;  891.750;   49.750;15897.250; 1.27465
1225.05;  892.750;   60.750;15920.250; 1.28017
1229.11;  890.750;   53.750;15924.250; 1.27787
1233.17;  895.750;   58.750;15926.250; 1.27778
1237.23;  896.750;   49.750;15943.250; 1.27334
1241.29;  889.750;   51.750;15960.250; 1.27839
1245.34;  917.750;   79.750;16029.250; 1.27950
1249.39;  912.750;   55.750;16081.250; 1.27183
1253.44;  909.750;   36.750;16122.250; 1.26542
1257.49;  923.750;   73.750;16225.250; 1.27879
1261.53;  920.750;   40.750;16273.250; 1.26590
1265.58;  924.750;   46.750;16338.250; 1.26847
1269.62;  925.750;   46.750;16412.250; 1.26994
1273.65;  932.750;   55.750;16472.250; 1.27228
1277.69;  937.750;   53.750;16552.250; 1.27099
1281.72;  927.750;   65.750;16612.250; 1.28320
1285.76;  941.750;   66.750;16662.250; 1.27798
1289.79;  934.750;   56.750;16697.250; 1.27767
1293.81;  929.750;   44.750;16713.250; 1.27495
1297.84;  924.750;   49.750;16765.250; 1.28111
1301.86;  913.750;   43.750;16807.250; 1.28485
1305.88;  902.750;   58.750;16824.250; 1.29807
1309.90;  892.750;   49.750;16842.250; 1.29929
1313.92;  886.750;   55.750;16828.250; 1.30500
1317.93;  869.750;   65.750;16838.250; 1.31934
1321.94;  854.750;   46.750;16825.250; 1.31734
1325.95;  826.750;   64.750;16797.250; 1.34161
1329.96;  825.750;   63.750;16802.250; 1.34176
1333.96;  812.750;   52.750;16773.250; 1.34244
1337.96;  786.750;   63.750;16776.250; 1.36390
1341.96;  742.750;   46.750;16748.250; 1.38015
1345.96;  736.750;   59.750;16622.250; 1.38854
1349.95;  702.750;   42.750;16410.250; 1.39444
1353.95;  683.750;   67.750;16154.250; 1.41688
1357.94;  644.750;   50.750;15843.250; 1.42466
1361.92;  626.750;   50.750;15571.250; 1.43048
1365.91;  591.750;   46.750;15308.250; 1.44720
1369.89;  556.750;   50.750;15042.250; 1.47169
1373.87;  503.750;   48.750;14460.250; 1.50070
1377.85;  469.750;   60.750;13607.250; 1.52010
1381.82;  388.750;   48.750;12795.250; 1.57391
1385.80;  367.750;   50.750;12441.250; 1.59203
1389.77;  313.750;   54.750;12376.250; 1.67736
1393.74;  277.750;   63.750;12523.250; 1.76509
1397.70;  242.750;   57.750;12861.250; 1.84016
1401.66;  193.750;   57.750;13177.250; 1.98438
1405.62;  181.750;   34.750;13448.250; 1.96022
1409.58;  168.750;   50.750;13653.250; 2.06174
1413.54;  146.750;   50.750;13787.250; 2.15560
1417.49;  126.750;   27.750;13838.250; 2.14457
1421.44;  136.750;   63.750;13894.250; 2.27752
1425.39;  138.750;   54.750;13879.250; 2.21637
1429.33;  117.750;   64.750;13864.250; 2.41559
1433.27;  126.750;   54.750;13809.250; 2.28111
1437.21;  114.750;   48.750;13776.250; 2.31805
1441.15;  119.750;   52.750;13748.250; 2.31050
1445.09;  126.750;   60.750;13691.250; 2.31497
1449.02;  110.750;   57.750;13611.250; 2.40778
1452.95;  118.750;   52.750;13536.250; 2.31026
1456.87;  114.750;   53.750;13439.250; 2.34130
1460.80;  111.750;   43.750;13345.250; 2.29139
1464.72;  108.750;   59.750;13253.250; 2.43016
1468.64;  122.750;   43.750;13131.250; 2.21923
1472.55;  102.750;   63.750;13051.250; 2.52246
1476.47;  110.750;   43.750;12969.250; 2.28537
1480.38;  115.750;   38.750;12870.250; 2.22179
1484.28;  111.750;   54.750;12750.250; 2.34777
1488.19;  122.750;   50.750;12663.250; 2.24347
1492.09;  106.750;   28.750;12533.250; 2.20497
1495.99;  120.750;   58.750;12434.250; 2.30017
1499.89;  137.750;   46.750;12320.250; 2.12993
1503.78;  137.750;   48.750;12228.250; 2.13624
1507.67;  138.750;   52.750;12113.250; 2.14687
1511.56;  126.750;   33.750;11982.250; 2.10883
1515.44;  137.750;   50.750;11884.250; 2.13359
1519.33;  152.750;   48.750;11757.250; 2.05147
1523.21;  158.750;   35.750;11649.250; 1.97506
1527.08;  152.750;   57.750;11506.250; 2.08102
1530.96;  158.750;   39.750;11368.250; 1.97863
1534.83;  162.750;   52.750;11249.250; 2.00769
1538.70;  179.750;   57.750;11082.250; 1.95600
1542.56;  158.750;   28.750;10958.250; 1.92466
1546.42;  175.750;   39.750;10836.250; 1.89974
1550.28;  176.750;   58.750;10683.250; 1.95443
1554.14;  174.750;   39.750;10510.250; 1.88963
1557.99;  179.750;   41.750;10388.250; 1.87491
1561.84;  176.750;   33.750;10234.250; 1.85329
1565.69;  183.750;   40.750;10095.250; 1.84702
1569.54;  187.750;   24.750; 9939.250; 1.78408
1573.38;  194.750;   40.750; 9804.250; 1.80208
1577.22;  183.750;   31.750; 9649.250; 1.80122
1581.05;  197.750;   49.750; 9522.250; 1.80620
1584.89;  201.750;   45.750; 9369.250; 1.77645
1588.72;  209.750;   41.750; 9215.250; 1.73723
1592.54;  196.750;   35.750; 9061.250; 1.74865
1596.37;  197.750;   22.750; 8908.250; 1.70564
1600.19;  210.750;   43.750; 8774.250; 1.71832
1604.01;  196.750;   33.750; 8610.250; 1.72112
1607.82;  218.750;   31.750; 8473.250; 1.65458
1611.63;  187.750;   22.750; 8316.250; 1.70125
1615.44;  216.750;   26.750; 8167.250; 1.63190
1619.25;  194.750;   34.750; 7998.250; 1.69698
1623.05;  185.750;   13.750; 7822.250; 1.65704
1626.85;  206.750;   26.750; 7668.250; 1.62791
1630.64;  199.750;   42.750; 7511.250; 1.67733
1634.44;  193.750;   26.750; 7307.250; 1.63944
1638.23;  190.750;   18.750; 7114.250; 1.61545
1642.01;  186.750;   39.750; 6938.250; 1.67144
1645.80;  198.750;   42.750; 6743.250; 1.63298
1649.58;  179.750;   38.750; 6531.250; 1.66319
1653.35;  202.750;   44.750; 6309.250; 1.59823
1657.13;  168.750;   36.750; 6064.250; 1.65956
1660.90;  166.750;   34.750; 5808.250; 1.64087
1664.67;  160.750;   28.750; 5491.250; 1.61682
1668.43;  165.750;   24.750; 5119.250; 1.55788
1672.19;  160.750;   35.750; 4656.250; 1.56778
1675.95;  127.750;   31.750; 4113.250; 1.62855
1679.70;  102.750;   46.750; 3563.250; 1.79792
1683.46;  117.750;   23.750; 3047.250; 1.50738
1687.20;  114.750;   39.750; 2617.250; 1.53614
1690.95;   93.750;   36.750; 2243.250; 1.58783
1694.69;  103.750;   56.750; 1964.250; 1.60837
1698.43;   86.750;   22.750; 1699.250; 1.41822
1702.16;   94.750;   44.750; 1533.250; 1.47378
1705.89;   80.750;   30.750; 1372.250; 1.42862
1709.62;   80.750;   25.750; 1277.250; 1.35707
1713.35;   79.750;   17.750; 1187.250; 1.27561
1717.07;   82.750;   42.750; 1123.250; 1.43156
1720.79;   82.750;   41.750; 1064.250; 1.39688
1724.50;   83.750;   44.750; 1019.250; 1.39772
1728.21;   81.750;   29.750;  974.250; 1.25920
1731.92;   67.750;   25.750;  931.250; 1.33364
1735.63;   74.750;   34.750;  925.250; 1.34757
1739.33;   88.750;   23.750;  909.250; 1.13428
1743.02;   67.750;   21.750;  865.250; 1.26333
1746.72;   76.750;   33.750;  872.250; 1.29003
1750.41;   91.750;   37.750;  865.250; 1.18537
1754.10;   84.750;   44.750;  846.250; 1.30184

