
Integration time [ms]:  10.000
Averaging Nr. [scans]: 10
Smoothing Nr. [pixels]: 0
Data measured with spectrometer [name]: 1911294U1
Wave   ;Sample   ;Dark     ;Reference;Absorbance
[nm]   ;[counts] ;[counts] ;[counts] ;[A.U]

 860.61; 1757.400; 1551.700; 1907.800; 0.23834
 864.82; 1745.800; 1505.600; 1955.500; 0.27254
 869.02; 1794.600; 1514.900; 2034.000; 0.26856
 873.23; 1847.000; 1530.300; 2122.800; 0.27204
 877.43; 1830.300; 1494.800; 2149.500; 0.29035
 881.63; 1909.400; 1530.800; 2256.000; 0.28228
 885.83; 1911.700; 1499.600; 2300.600; 0.28863
 890.03; 1941.600; 1501.000; 2363.200; 0.29156
 894.23; 1976.100; 1498.400; 2434.200; 0.29203
 898.42; 1998.400; 1490.200; 2489.500; 0.29366
 902.62; 2070.600; 1522.400; 2605.100; 0.29557
 906.81; 2070.600; 1488.700; 2644.500; 0.29803
 911.00; 2125.200; 1494.400; 2732.000; 0.29269
 915.19; 2179.500; 1503.000; 2840.700; 0.29609
 919.38; 2276.500; 1541.400; 2988.000; 0.29400
 923.57; 2279.400; 1477.600; 3060.100; 0.29528
 927.76; 2417.600; 1511.200; 3297.300; 0.29459
 931.94; 2520.000; 1493.300; 3511.600; 0.29354
 936.13; 2669.900; 1516.000; 3764.700; 0.28976
 940.31; 2735.300; 1484.900; 3931.100; 0.29144
 944.49; 2906.000; 1547.000; 4163.000; 0.28442
 948.67; 2963.100; 1518.900; 4297.000; 0.28412
 952.85; 3031.000; 1493.400; 4427.000; 0.28056
 957.03; 3133.500; 1501.100; 4604.000; 0.27894
 961.21; 3243.000; 1518.200; 4778.500; 0.27652
 965.38; 3319.800; 1507.600; 4921.400; 0.27503
 969.55; 3407.100; 1505.800; 5072.200; 0.27318
 973.73; 3517.400; 1520.500; 5253.800; 0.27174
 977.90; 3601.100; 1511.100; 5413.200; 0.27115
 982.06; 3701.900; 1518.800; 5592.700; 0.27094
 986.23; 3793.500; 1506.000; 5748.000; 0.26821
 990.40; 3911.100; 1519.400; 5941.100; 0.26688
 994.56; 4037.600; 1538.400; 6129.700; 0.26413
 998.72; 4125.500; 1541.900; 6290.500; 0.26434
1002.88; 4189.600; 1510.200; 6415.300; 0.26261
1007.04; 4294.100; 1529.400; 6579.000; 0.26161
1011.20; 4373.500; 1519.900; 6717.500; 0.26041
1015.36; 4482.800; 1543.200; 6867.300; 0.25796
1019.51; 4520.700; 1510.000; 6947.400; 0.25672
1023.67; 4611.100; 1530.900; 7080.200; 0.25566
1027.82; 4674.700; 1512.800; 7172.800; 0.25287
1031.97; 4752.700; 1525.500; 7291.600; 0.25206
1036.12; 4820.000; 1523.900; 7384.200; 0.24992
1040.27; 4886.400; 1520.100; 7490.500; 0.24885
1044.41; 4956.500; 1522.700; 7585.300; 0.24688
1048.56; 5042.500; 1534.900; 7704.000; 0.24521
1052.70; 5096.300; 1519.500; 7789.500; 0.24377
1056.84; 5179.000; 1529.400; 7905.400; 0.24230
1060.98; 5221.600; 1501.100; 7985.000; 0.24123
1065.11; 5321.200; 1513.900; 8119.500; 0.23930
1069.25; 5416.300; 1526.700; 8264.000; 0.23858
1073.38; 5515.000; 1527.800; 8408.100; 0.23694
1077.52; 5620.100; 1546.500; 8548.800; 0.23526
1081.65; 5702.400; 1532.900; 8683.900; 0.23428
1085.77; 5793.700; 1527.000; 8829.600; 0.23339
1089.90; 5904.200; 1533.700; 8986.900; 0.23181
1094.03; 5977.900; 1500.400; 9113.600; 0.23053
1098.15; 6132.500; 1546.400; 9322.700; 0.22933
1102.27; 6190.000; 1489.800; 9441.600; 0.22835
1106.39; 6341.000; 1527.600; 9661.400; 0.22784
1110.51; 6497.400; 1551.400; 9878.200; 0.22622
1114.63; 6594.000; 1500.800;10067.700; 0.22583
1118.74; 6799.500; 1553.000;10360.700; 0.22499
1122.85; 6888.600; 1530.700;10522.800; 0.22487
1126.96; 6952.500; 1503.600;10642.400; 0.22458
1131.07; 7070.900; 1554.700;10786.500; 0.22365
1135.18; 7061.200; 1504.600;10802.100; 0.22356
1139.29; 7111.100; 1516.000;10868.600; 0.22312
1143.39; 7156.500; 1538.200;10912.400; 0.22233
1147.49; 7139.900; 1518.500;10897.900; 0.22233
1151.59; 7148.900; 1515.000;10914.000; 0.22227
1155.69; 7195.900; 1541.600;10966.800; 0.22191
1159.78; 7162.900; 1502.700;10951.200; 0.22253
1163.88; 7222.200; 1536.300;11019.900; 0.22217
1167.97; 7244.100; 1537.000;11049.100; 0.22186
1172.06; 7242.500; 1514.600;11052.300; 0.22145
1176.15; 7250.700; 1511.400;11073.900; 0.22171
1180.23; 7320.900; 1549.600;11155.900; 0.22128
1184.32; 7286.900; 1494.700;11140.100; 0.22148
1188.40; 7330.400; 1514.000;11201.700; 0.22157
1192.48; 7356.200; 1515.300;11260.500; 0.22231
1196.56; 7388.900; 1521.200;11309.800; 0.22225
1200.64; 7440.900; 1534.600;11380.300; 0.22193
1204.71; 7447.600; 1514.200;11415.100; 0.22237
1208.78; 7489.100; 1522.400;11476.100; 0.22225
1212.85; 7550.400; 1547.900;11559.600; 0.22218
1216.92; 7507.500; 1476.200;11533.500; 0.22207
1220.99; 7629.200; 1534.300;11668.800; 0.22084
1225.05; 7671.000; 1527.500;11719.100; 0.21983
1229.11; 7711.000; 1506.200;11777.200; 0.21888
1233.17; 7803.000; 1537.300;11867.500; 0.21714
1237.23; 7866.900; 1535.100;11935.000; 0.21550
1241.29; 7921.400; 1531.200;11992.800; 0.21408
1245.34; 8024.600; 1560.000;12107.000; 0.21259
1249.39; 8034.200; 1500.000;12117.900; 0.21085
1253.44; 8121.300; 1518.900;12212.500; 0.20942
1257.49; 8225.800; 1552.800;12334.500; 0.20837
1261.53; 8254.400; 1518.900;12369.900; 0.20710
1265.58; 8329.300; 1525.900;12452.600; 0.20576
1269.62; 8385.600; 1519.600;12529.800; 0.20509
1273.65; 8456.600; 1519.900;12603.400; 0.20352
1277.69; 8516.700; 1518.000;12681.800; 0.20279
1281.72; 8603.500; 1530.100;12773.400; 0.20127
1285.76; 8666.800; 1529.900;12851.500; 0.20040
1289.79; 8722.900; 1520.800;12909.400; 0.19901
1293.81; 8780.800; 1511.100;12974.600; 0.19780
1297.84; 8811.200; 1490.200;13004.900; 0.19668
1301.86; 8925.900; 1546.100;13137.300; 0.19608
1305.88; 8945.500; 1520.800;13163.800; 0.19539
1309.90; 9011.500; 1541.300;13243.300; 0.19493
1313.92; 8993.200; 1497.800;13236.900; 0.19484
1317.93; 9058.900; 1527.400;13321.700; 0.19479
1321.94; 9072.800; 1516.400;13349.300; 0.19478
1325.95; 9082.900; 1515.800;13392.300; 0.19576
1329.96; 9107.600; 1527.200;13449.200; 0.19666
1333.96; 9104.000; 1523.500;13501.700; 0.19869
1337.96; 9116.100; 1525.700;13575.100; 0.20070
1341.96; 9088.100; 1530.100;13604.900; 0.20347
1345.96; 8944.800; 1514.800;13535.100; 0.20893
1349.95; 8741.400; 1504.900;13357.000; 0.21427
1353.95; 8458.200; 1500.800;13080.300; 0.22124
1357.94; 8192.200; 1519.000;12810.900; 0.22843
1361.92; 7970.800; 1525.200;12577.700; 0.23420
1365.91; 7866.000; 1509.100;12495.800; 0.23762
1369.89; 7865.300; 1500.900;12522.200; 0.23848
1373.87; 7848.600; 1483.400;12502.700; 0.23834
1377.85; 7684.800; 1541.800;12256.400; 0.24160
1381.82; 7371.700; 1495.800;11839.800; 0.24561
1385.80; 7374.800; 1542.900;11856.600; 0.24760
1389.77; 7337.200; 1524.900;11869.500; 0.25037
1393.74; 7202.500; 1509.900;11804.200; 0.25729
1397.70; 7188.700; 1552.300;11918.000; 0.26460
1401.66; 7090.900; 1522.100;11986.800; 0.27397
1405.62; 6968.000; 1502.000;12055.500; 0.28573
1409.58; 6915.900; 1528.700;12203.600; 0.29700
1413.54; 6805.300; 1519.400;12293.200; 0.30925
1417.49; 6637.900; 1476.800;12292.900; 0.32133
1421.44; 6560.800; 1523.100;12384.600; 0.33366
1425.39; 6434.200; 1510.500;12382.800; 0.34403
1429.33; 6352.300; 1525.700;12395.900; 0.35260
1433.27; 6261.400; 1523.700;12370.200; 0.35972
1437.21; 6171.900; 1502.800;12323.500; 0.36502
1441.15; 6179.700; 1543.700;12339.600; 0.36712
1445.09; 6134.400; 1531.000;12292.800; 0.36881
1449.02; 6056.200; 1489.700;12200.500; 0.37024
1452.95; 6090.600; 1529.700;12230.100; 0.37035
1456.87; 6064.100; 1524.100;12175.900; 0.37037
1460.80; 6024.000; 1510.600;12112.200; 0.37087
1464.72; 5970.400; 1502.500;12023.800; 0.37197
1468.64; 5947.000; 1502.300;11961.600; 0.37166
1472.55; 5939.000; 1518.100;11913.700; 0.37134
1476.47; 5950.000; 1531.300;11884.300; 0.36977
1480.38; 5929.200; 1517.300;11801.000; 0.36752
1484.28; 5932.700; 1535.000;11762.600; 0.36655
1488.19; 5918.500; 1522.200;11690.100; 0.36414
1492.09; 5883.500; 1489.900;11596.700; 0.36179
1495.99; 5894.800; 1506.600;11539.600; 0.35914
1499.89; 5912.800; 1513.300;11504.200; 0.35620
1503.78; 5911.900; 1515.200;11427.600; 0.35305
1507.67; 5939.300; 1539.800;11381.400; 0.34966
1511.56; 5895.700; 1498.300;11268.800; 0.34672
1515.44; 5936.800; 1525.700;11237.600; 0.34276
1519.33; 5917.000; 1515.200;11135.600; 0.33956
1523.21; 5929.500; 1523.900;11078.700; 0.33622
1527.08; 5906.400; 1519.400;10990.300; 0.33422
1530.96; 5872.600; 1500.300;10886.000; 0.33176
1534.83; 5900.700; 1544.300;10845.200; 0.32940
1538.70; 5839.700; 1508.600;10715.900; 0.32753
1542.56; 5795.700; 1500.900;10619.900; 0.32700
1546.42; 5792.200; 1517.300;10554.500; 0.32511
1550.28; 5759.000; 1513.400;10453.100; 0.32338
1554.14; 5723.500; 1508.800;10345.500; 0.32152
1557.99; 5703.000; 1525.700;10266.900; 0.32068
1561.84; 5635.400; 1498.400;10122.900; 0.31905
1565.69; 5621.600; 1516.200;10052.800; 0.31793
1569.54; 5575.500; 1503.300; 9933.900; 0.31603
1573.38; 5533.700; 1501.700; 9824.400; 0.31474
1577.22; 5521.500; 1527.000; 9752.100; 0.31368
1581.05; 5467.500; 1512.400; 9625.200; 0.31201
1584.89; 5444.700; 1524.900; 9522.100; 0.30967
1588.72; 5404.400; 1517.700; 9409.100; 0.30757
1592.54; 5349.300; 1506.200; 9274.600; 0.30565
1596.37; 5344.700; 1517.200; 9177.600; 0.30134
1600.19; 5305.300; 1510.100; 9050.400; 0.29815
1604.01; 5251.500; 1486.400; 8899.400; 0.29422
1607.82; 5237.800; 1509.800; 8796.900; 0.29108
1611.63; 5171.400; 1480.100; 8624.900; 0.28681
1615.44; 5217.000; 1553.300; 8575.400; 0.28255
1619.25; 5094.000; 1486.200; 8361.300; 0.28004
1623.05; 5031.700; 1479.000; 8208.600; 0.27743
1626.85; 5016.100; 1513.000; 8103.300; 0.27445
1630.64; 4967.100; 1524.000; 7969.700; 0.27232
1634.44; 4879.900; 1504.600; 7800.200; 0.27072
1638.23; 4811.400; 1503.300; 7652.600; 0.26925
1642.01; 4738.000; 1506.800; 7500.000; 0.26829
1645.80; 4644.000; 1499.800; 7336.400; 0.26865
1649.58; 4555.500; 1507.600; 7165.100; 0.26862
1653.35; 4515.500; 1554.000; 7043.000; 0.26798
1657.13; 4340.500; 1486.500; 6816.300; 0.27126
1660.90; 4253.900; 1500.200; 6658.700; 0.27261
1664.67; 4132.000; 1492.900; 6464.500; 0.27504
1668.43; 4030.200; 1506.200; 6271.300; 0.27598
1672.19; 3901.500; 1522.100; 6011.600; 0.27573
1675.95; 3674.600; 1493.800; 5613.400; 0.27624
1679.70; 3500.600; 1530.900; 5235.900; 0.27439
1683.46; 3231.500; 1497.800; 4742.900; 0.27225
1687.20; 3003.400; 1511.400; 4295.600; 0.27093
1690.95; 2777.900; 1504.400; 3867.300; 0.26845
1694.69; 2596.500; 1514.400; 3526.700; 0.26943
1698.43; 2404.500; 1482.500; 3185.600; 0.26651
1702.16; 2287.600; 1497.600; 2968.200; 0.26987
1705.89; 2195.300; 1499.300; 2779.100; 0.26453
1709.62; 2105.500; 1493.100; 2618.100; 0.26412
1713.35; 2073.900; 1522.600; 2525.400; 0.25983
1717.07; 1978.800; 1492.000; 2393.400; 0.26757
1720.79; 1967.100; 1513.300; 2338.300; 0.25959
1724.50; 1932.900; 1514.000; 2272.300; 0.25773
1728.21; 1886.900; 1499.400; 2201.400; 0.25807
1731.92; 1856.500; 1495.900; 2152.500; 0.26028
1735.63; 1831.300; 1483.800; 2109.800; 0.25562
1739.33; 1851.700; 1525.100; 2113.700; 0.25580
1743.02; 1814.400; 1493.200; 2053.800; 0.24188
1746.72; 1794.700; 1494.300; 2031.700; 0.25260
1750.41; 1792.100; 1502.900; 2014.600; 0.24782
1754.10; 1795.200; 1515.500; 2011.500; 0.24879

