
Integration time [ms]:   3.780
Averaging Nr. [scans]: 1
Smoothing Nr. [pixels]: 0
Data measured with spectrometer [name]: 1911294U1
Wave   ;Sample   ;Dark     ;Reference;Absorbance
[nm]   ;[counts] ;[counts] ;[counts] ;[A.U]

 860.61;  100.000;   67.750;  833.250; 1.37542
 864.82;  123.000;   49.750;  998.250; 1.11223
 869.02;  132.000;   59.750; 1169.250; 1.18629
 873.23;  133.000;   54.750; 1288.250; 1.19765
 877.43;  143.000;   53.750; 1415.250; 1.18341
 881.63;  171.000;   54.750; 1540.250; 1.10648
 885.83;  173.000;   49.750; 1684.250; 1.12260
 890.03;  171.000;   28.750; 1796.250; 1.09431
 894.23;  176.000;   40.750; 1929.250; 1.14498
 898.42;  181.000;   37.750; 2071.250; 1.15215
 902.62;  211.000;   56.750; 2213.250; 1.14552
 906.81;  198.000;   35.750; 2337.250; 1.15183
 911.00;  233.000;   53.750; 2523.250; 1.13915
 915.19;  237.000;   45.750; 2712.250; 1.14434
 919.38;  260.000;   47.750; 2963.250; 1.13787
 923.57;  285.000;   53.750; 3292.250; 1.14626
 927.76;  298.000;   40.750; 3728.250; 1.15638
 931.94;  352.000;   39.750; 4163.250; 1.12076
 936.13;  368.000;   53.750; 4579.250; 1.15839
 940.31;  389.000;   50.750; 4873.250; 1.15403
 944.49;  420.000;   63.750; 5167.250; 1.15611
 948.67;  426.000;   49.750; 5411.250; 1.15381
 952.85;  431.000;   50.750; 5679.250; 1.17032
 957.03;  453.000;   47.750; 5965.250; 1.16442
 961.21;  474.000;   58.750; 6236.250; 1.17250
 965.38;  491.000;   44.750; 6471.250; 1.15840
 969.55;  478.000;   37.750; 6719.250; 1.18117
 973.73;  509.000;   56.750; 6971.250; 1.18438
 977.90;  510.000;   42.750; 7222.250; 1.18654
 982.06;  542.000;   44.750; 7469.250; 1.17409
 986.23;  553.000;   51.750; 7739.250; 1.18573
 990.40;  590.000;   61.750; 7985.250; 1.17608
 994.56;  606.000;   65.750; 8243.250; 1.18003
 998.72;  616.000;   58.750; 8450.250; 1.17779
1002.88;  634.000;   57.750; 8670.250; 1.17452
1007.04;  652.000;   52.750; 8879.250; 1.16818
1011.20;  648.000;   49.750; 9068.250; 1.17825
1015.36;  678.000;   45.750; 9257.250; 1.16344
1019.51;  685.000;   60.750; 9402.250; 1.17506
1023.67;  694.000;   69.750; 9574.250; 1.18257
1027.82;  707.000;   61.750; 9729.250; 1.17559
1031.97;  721.000;   55.750; 9851.250; 1.16804
1036.12;  722.000;   49.750;10022.250; 1.17127
1040.27;  748.000;   61.750;10174.250; 1.16838
1044.41;  740.000;   73.750;10320.250; 1.18694
1048.56;  775.000;   53.750;10468.250; 1.15955
1052.70;  778.000;   58.750;10629.250; 1.16722
1056.84;  790.000;   47.750;10798.250; 1.16088
1060.98;  777.000;   67.750;10996.250; 1.18776
1065.11;  809.000;   63.750;11181.250; 1.17371
1069.25;  823.000;   63.750;11391.250; 1.17375
1073.38;  826.000;   56.750;11632.250; 1.17747
1077.52;  874.000;   70.750;11862.250; 1.16672
1081.65;  862.000;   62.750;12105.250; 1.17803
1085.77;  878.000;   60.750;12352.250; 1.17725
1089.90;  911.000;   56.750;12603.250; 1.16694
1094.03;  910.000;   65.750;12857.250; 1.18045
1098.15;  924.000;   68.750;13146.250; 1.18443
1102.27;  946.000;   66.750;13436.250; 1.18200
1106.39;  974.000;   69.750;13733.250; 1.17927
1110.51;  975.000;   69.750;14055.250; 1.18891
1114.63;  984.000;   49.750;14464.250; 1.18834
1118.74; 1039.000;   73.750;14874.250; 1.18564
1122.85; 1050.000;   70.750;15167.250; 1.18798
1126.96; 1034.000;   61.750;15350.250; 1.19659
1131.07; 1045.000;   57.750;15457.250; 1.19308
1135.18; 1015.000;   63.750;15545.250; 1.21152
1139.29; 1011.000;   45.750;15604.250; 1.20733
1143.39;  976.000;   62.750;15613.250; 1.23115
1147.49;  960.000;   71.750;15592.250; 1.24237
1151.59;  940.000;   71.750;15618.250; 1.25299
1155.69;  925.000;   64.750;15618.250; 1.25720
1159.78;  915.000;   61.750;15619.250; 1.26086
1163.88;  913.000;   66.750;15654.250; 1.26528
1167.97;  893.000;   60.750;15657.250; 1.27277
1172.06;  887.000;   60.750;15668.250; 1.27622
1176.15;  890.000;   53.750;15670.250; 1.27125
1180.23;  883.000;   59.750;15679.250; 1.27814
1184.32;  878.000;   50.750;15690.250; 1.27659
1188.40;  876.000;   57.750;15712.250; 1.28175
1192.48;  879.000;   55.750;15725.250; 1.27952
1196.56;  878.000;   53.750;15754.250; 1.27985
1200.64;  893.000;   72.750;15783.250; 1.28224
1204.71;  888.000;   50.750;15806.250; 1.27458
1208.78;  899.000;   69.750;15849.250; 1.27941
1212.85;  895.000;   54.750;15854.250; 1.27423
1216.92;  884.000;   37.750;15840.250; 1.27123
1220.99;  900.000;   49.750;15897.250; 1.27041
1225.05;  915.000;   60.750;15920.250; 1.26870
1229.11;  907.000;   53.750;15924.250; 1.26951
1233.17;  911.000;   58.750;15926.250; 1.26994
1237.23;  909.000;   49.750;15943.250; 1.26710
1241.29;  917.000;   51.750;15960.250; 1.26449
1245.34;  931.000;   79.750;16029.250; 1.27269
1249.39;  929.000;   55.750;16081.250; 1.26367
1253.44;  915.000;   36.750;16122.250; 1.26282
1257.49;  938.000;   73.750;16225.250; 1.27157
1261.53;  958.000;   40.750;16273.250; 1.24790
1265.58;  945.000;   46.750;16338.250; 1.25856
1269.62;  936.000;   46.750;16412.250; 1.26491
1273.65;  939.000;   55.750;16472.250; 1.26920
1277.69;  952.000;   53.750;16552.250; 1.26405
1281.72;  950.000;   65.750;16612.250; 1.27213
1285.76;  954.000;   66.750;16662.250; 1.27194
1289.79;  935.000;   56.750;16697.250; 1.27755
1293.81;  945.000;   44.750;16713.250; 1.26753
1297.84;  943.000;   49.750;16765.250; 1.27215
1301.86;  940.000;   43.750;16807.250; 1.27194
1305.88;  914.000;   58.750;16824.250; 1.29232
1309.90;  921.000;   49.750;16842.250; 1.28497
1313.92;  906.000;   55.750;16828.250; 1.29505
1317.93;  893.000;   65.750;16838.250; 1.30696
1321.94;  861.000;   46.750;16825.250; 1.31400
1325.95;  856.000;   64.750;16797.250; 1.32525
1329.96;  836.000;   63.750;16802.250; 1.33596
1333.96;  818.000;   52.750;16773.250; 1.33945
1337.96;  786.000;   63.750;16776.250; 1.36435
1341.96;  768.000;   46.750;16748.250; 1.36467
1345.96;  747.000;   59.750;16622.250; 1.38201
1349.95;  717.000;   42.750;16410.250; 1.38516
1353.95;  704.000;   67.750;16154.250; 1.40283
1357.94;  664.000;   50.750;15843.250; 1.41081
1361.92;  643.000;   50.750;15571.250; 1.41840
1365.91;  615.000;   46.750;15308.250; 1.42906
1369.89;  588.000;   50.750;15042.250; 1.44567
1373.87;  543.000;   48.750;14460.250; 1.46476
1377.85;  489.000;   60.750;13607.250; 1.50013
1381.82;  417.000;   48.750;12795.250; 1.53925
1385.80;  391.000;   50.750;12441.250; 1.56129
1389.77;  313.000;   54.750;12376.250; 1.67862
1393.74;  297.000;   63.750;12523.250; 1.72768
1397.70;  248.000;   57.750;12861.250; 1.82800
1401.66;  196.000;   57.750;13177.250; 1.97725
1405.62;  193.000;   34.750;13448.250; 1.92820
1409.58;  166.000;   50.750;13653.250; 2.07198
1413.54;  152.000;   50.750;13787.250; 2.13248
1417.49;  123.000;   27.750;13838.250; 2.16134
1421.44;  141.000;   63.750;13894.250; 2.25294
1425.39;  124.000;   54.750;13879.250; 2.30023
1429.33;  130.000;   64.750;13864.250; 2.32528
1433.27;  119.000;   54.750;13809.250; 2.33057
1437.21;  105.000;   48.750;13776.250; 2.38747
1441.15;  130.000;   52.750;13748.250; 2.24868
1445.09;  121.000;   60.750;13691.250; 2.35455
1449.02;  104.000;   57.750;13611.250; 2.46694
1452.95;  121.000;   52.750;13536.250; 2.29570
1456.87;  106.000;   53.750;13439.250; 2.40855
1460.80;   98.000;   43.750;13345.250; 2.38950
1464.72;  116.000;   59.750;13253.250; 2.37024
1468.64;  107.000;   43.750;13131.250; 2.31580
1472.55;  110.000;   63.750;13051.250; 2.44841
1476.47;  118.000;   43.750;12969.250; 2.24075
1480.38;  118.000;   38.750;12870.250; 2.20928
1484.28;  125.000;   54.750;12750.250; 2.25700
1488.19;  115.000;   50.750;12663.250; 2.29293
1492.09;  106.000;   28.750;12533.250; 2.20917
1495.99;  128.000;   58.750;12434.250; 2.25214
1499.89;  126.000;   46.750;12320.250; 2.18997
1503.78;  132.000;   48.750;12228.250; 2.16525
1507.67;  141.000;   52.750;12113.250; 2.13565
1511.56;  126.000;   33.750;11982.250; 2.11235
1515.44;  139.000;   50.750;11884.250; 2.12740
1519.33;  168.000;   48.750;11757.250; 1.99204
1523.21;  171.000;   35.750;11649.250; 1.93383
1527.08;  150.000;   57.750;11506.250; 2.09378
1530.96;  176.000;   39.750;11368.250; 1.91984
1534.83;  183.000;   52.750;11249.250; 1.93430
1538.70;  173.000;   57.750;11082.250; 1.98072
1542.56;  169.000;   28.750;10958.250; 1.89170
1546.42;  184.000;   39.750;10836.250; 1.87417
1550.28;  183.000;   58.750;10683.250; 1.93201
1554.14;  195.000;   39.750;10510.250; 1.82894
1557.99;  190.000;   41.750;10388.250; 1.84380
1561.84;  188.000;   33.750;10234.250; 1.82040
1565.69;  191.000;   40.750;10095.250; 1.82555
1569.54;  193.000;   24.750; 9939.250; 1.77032
1573.38;  199.000;   40.750; 9804.250; 1.79026
1577.22;  194.000;   31.750; 9649.250; 1.77288
1581.05;  203.000;   49.750; 9522.250; 1.79106
1584.89;  215.000;   45.750; 9369.250; 1.74105
1588.72;  212.000;   41.750; 9215.250; 1.73145
1592.54;  207.000;   35.750; 9061.250; 1.72184
1596.37;  202.000;   22.750; 8908.250; 1.69522
1600.19;  209.000;   43.750; 8774.250; 1.72290
1604.01;  199.000;   33.750; 8610.250; 1.71517
1607.82;  199.000;   31.750; 8473.250; 1.70305
1611.63;  195.000;   22.750; 8316.250; 1.68258
1615.44;  202.000;   26.750; 8167.250; 1.66699
1619.25;  194.000;   34.750; 7998.250; 1.69902
1623.05;  197.000;   13.750; 7822.250; 1.62952
1626.85;  211.000;   26.750; 7668.250; 1.61777
1630.64;  205.000;   42.750; 7511.250; 1.66305
1634.44;  192.000;   26.750; 7307.250; 1.64402
1638.23;  192.000;   18.750; 7114.250; 1.61231
1642.01;  192.000;   39.750; 6938.250; 1.65620
1645.80;  193.000;   42.750; 6743.250; 1.64929
1649.58;  190.000;   38.750; 6531.250; 1.63272
1653.35;  189.000;   44.750; 6309.250; 1.63777
1657.13;  165.000;   36.750; 6064.250; 1.67208
1660.90;  167.000;   34.750; 5808.250; 1.64004
1664.67;  160.000;   28.750; 5491.250; 1.61929
1668.43;  158.000;   24.750; 5119.250; 1.58243
1672.19;  156.000;   35.750; 4656.250; 1.58460
1675.95;  134.000;   31.750; 4113.250; 1.60116
1679.70;  107.000;   46.750; 3563.250; 1.76615
1683.46;  107.000;   23.750; 3047.250; 1.56013
1687.20;  126.000;   39.750; 2617.250; 1.47544
1690.95;  107.000;   36.750; 2243.250; 1.49706
1694.69;  108.000;   56.750; 1964.250; 1.57077
1698.43;   87.000;   22.750; 1699.250; 1.41653
1702.16;   87.000;   44.750; 1533.250; 1.54692
1705.89;   84.000;   30.750; 1372.250; 1.40127
1709.62;   83.000;   25.750; 1277.250; 1.33966
1713.35;   73.000;   17.750; 1187.250; 1.32567
1717.07;   79.000;   42.750; 1123.250; 1.47432
1720.79;   77.000;   41.750; 1064.250; 1.46250
1724.50;   91.000;   44.750; 1019.250; 1.32367
1728.21;   95.000;   29.750;  974.250; 1.16062
1731.92;   72.000;   25.750;  931.250; 1.29178
1735.63;   83.000;   34.750;  925.250; 1.26614
1739.33;  102.000;   23.750;  909.250; 1.05370
1743.02;   75.000;   21.750;  865.250; 1.19977
1746.72;   83.000;   33.750;  872.250; 1.23110
1750.41;   93.000;   37.750;  865.250; 1.17544
1754.10;   85.000;   44.750;  846.250; 1.29914

