
Integration time [ms]:   3.780
Averaging Nr. [scans]: 1
Smoothing Nr. [pixels]: 0
Data measured with spectrometer [name]: 1911294U1
Wave   ;Sample   ;Dark     ;Reference;Absorbance
[nm]   ;[counts] ;[counts] ;[counts] ;[A.U]

 860.61;  121.000;   67.750;  833.250; 1.15763
 864.82;  136.000;   49.750;  998.250; 1.04128
 869.02;  152.000;   59.750; 1169.250; 1.08016
 873.23;  179.000;   54.750; 1288.250; 0.99684
 877.43;  170.000;   53.750; 1415.250; 1.06862
 881.63;  186.000;   54.750; 1540.250; 1.05377
 885.83;  187.000;   49.750; 1684.250; 1.07587
 890.03;  195.000;   28.750; 1796.250; 1.02660
 894.23;  205.000;   40.750; 1929.250; 1.06061
 898.42;  218.000;   37.750; 2071.250; 1.05237
 902.62;  222.000;   56.750; 2213.250; 1.11561
 906.81;  251.000;   35.750; 2337.250; 1.02907
 911.00;  253.000;   53.750; 2523.250; 1.09321
 915.19;  268.000;   45.750; 2712.250; 1.07910
 919.38;  314.000;   47.750; 2963.250; 1.03942
 923.57;  336.000;   53.750; 3292.250; 1.05971
 927.76;  359.000;   40.750; 3728.250; 1.06396
 931.94;  390.000;   39.750; 4163.250; 1.07089
 936.13;  419.000;   53.750; 4579.250; 1.09308
 940.31;  450.000;   50.750; 4873.250; 1.08203
 944.49;  501.000;   63.750; 5167.250; 1.06714
 948.67;  485.000;   49.750; 5411.250; 1.09055
 952.85;  498.000;   50.750; 5679.250; 1.09984
 957.03;  541.000;   47.750; 5965.250; 1.07907
 961.21;  544.000;   58.750; 6236.250; 1.10485
 965.38;  556.000;   44.750; 6471.250; 1.09934
 969.55;  564.000;   37.750; 6719.250; 1.10368
 973.73;  596.000;   56.750; 6971.250; 1.10797
 977.90;  626.000;   42.750; 7222.250; 1.09024
 982.06;  631.000;   44.750; 7469.250; 1.10258
 986.23;  649.000;   51.750; 7739.250; 1.10963
 990.40;  679.000;   61.750; 7985.250; 1.10846
 994.56;  695.000;   65.750; 8243.250; 1.11380
 998.72;  720.000;   58.750; 8450.250; 1.10347
1002.88;  713.000;   57.750; 8670.250; 1.11872
1007.04;  744.000;   52.750; 8879.250; 1.10615
1011.20;  743.000;   49.750; 9068.250; 1.11424
1015.36;  771.000;   45.750; 9257.250; 1.10384
1019.51;  785.000;   60.750; 9402.250; 1.11053
1023.67;  810.000;   69.750; 9574.250; 1.10855
1027.82;  813.000;   61.750; 9729.250; 1.10953
1031.97;  827.000;   55.750; 9851.250; 1.10383
1036.12;  833.000;   49.750;10022.250; 1.10490
1040.27;  832.000;   61.750;10174.250; 1.11823
1044.41;  858.000;   73.750;10320.250; 1.11612
1048.56;  882.000;   53.750;10468.250; 1.09948
1052.70;  891.000;   58.750;10629.250; 1.10384
1056.84;  904.000;   47.750;10798.250; 1.09883
1060.98;  903.000;   67.750;10996.250; 1.11674
1065.11;  926.000;   63.750;11181.250; 1.11037
1069.25;  944.000;   63.750;11391.250; 1.10953
1073.38;  969.000;   56.750;11632.250; 1.10343
1077.52;  979.000;   70.750;11862.250; 1.11336
1081.65;  999.000;   62.750;12105.250; 1.10932
1085.77; 1014.000;   60.750;12352.250; 1.11040
1089.90; 1043.000;   56.750;12603.250; 1.10454
1094.03; 1048.000;   65.750;12857.250; 1.11470
1098.15; 1073.000;   68.750;13146.250; 1.11468
1102.27; 1089.000;   66.750;13436.250; 1.11656
1106.39; 1116.000;   69.750;13733.250; 1.11593
1110.51; 1131.000;   69.750;14055.250; 1.11986
1114.63; 1139.000;   49.750;14464.250; 1.12167
1118.74; 1196.000;   73.750;14874.250; 1.12019
1122.85; 1212.000;   70.750;15167.250; 1.12150
1126.96; 1193.000;   61.750;15350.250; 1.13081
1131.07; 1211.000;   57.750;15457.250; 1.12558
1135.18; 1199.000;   63.750;15545.250; 1.13472
1139.29; 1157.000;   45.750;15604.250; 1.14616
1143.39; 1145.000;   62.750;15613.250; 1.15742
1147.49; 1116.000;   71.750;15592.250; 1.17210
1151.59; 1103.000;   71.750;15618.250; 1.17827
1155.69; 1087.000;   64.750;15618.250; 1.18227
1159.78; 1062.000;   61.750;15619.250; 1.19183
1163.88; 1080.000;   66.750;15654.250; 1.18706
1167.97; 1047.000;   60.750;15657.250; 1.19904
1172.06; 1045.000;   60.750;15668.250; 1.20023
1176.15; 1037.000;   53.750;15670.250; 1.20092
1180.23; 1030.000;   59.750;15679.250; 1.20678
1184.32; 1021.000;   50.750;15690.250; 1.20734
1188.40; 1025.000;   57.750;15712.250; 1.20910
1192.48; 1020.000;   55.750;15725.250; 1.21087
1196.56; 1030.000;   53.750;15754.250; 1.20635
1200.64; 1040.000;   72.750;15783.250; 1.21065
1204.71; 1044.000;   50.750;15806.250; 1.20037
1208.78; 1042.000;   69.750;15849.250; 1.21032
1212.85; 1053.000;   54.750;15854.250; 1.19940
1216.92; 1036.000;   37.750;15840.250; 1.19949
1220.99; 1053.000;   49.750;15897.250; 1.19855
1225.05; 1057.000;   60.750;15920.250; 1.20192
1229.11; 1066.000;   53.750;15924.250; 1.19530
1233.17; 1064.000;   58.750;15926.250; 1.19823
1237.23; 1069.000;   49.750;15943.250; 1.19294
1241.29; 1056.000;   51.750;15960.250; 1.19979
1245.34; 1084.000;   79.750;16029.250; 1.20091
1249.39; 1076.000;   55.750;16081.250; 1.19610
1253.44; 1077.000;   36.750;16122.250; 1.18930
1257.49; 1102.000;   73.750;16225.250; 1.19611
1261.53; 1105.000;   40.750;16273.250; 1.18334
1265.58; 1099.000;   46.750;16338.250; 1.18984
1269.62; 1103.000;   46.750;16412.250; 1.19016
1273.65; 1098.000;   55.750;16472.250; 1.19731
1277.69; 1098.000;   53.750;16552.250; 1.19864
1281.72; 1108.000;   65.750;16612.250; 1.20073
1285.76; 1101.000;   66.750;16662.250; 1.20536
1289.79; 1099.000;   56.750;16697.250; 1.20319
1293.81; 1102.000;   44.750;16713.250; 1.19772
1297.84; 1070.000;   49.750;16765.250; 1.21441
1301.86; 1087.000;   43.750;16807.250; 1.20598
1305.88; 1078.000;   58.750;16824.250; 1.21614
1309.90; 1061.000;   49.750;16842.250; 1.22026
1313.92; 1046.000;   55.750;16828.250; 1.22885
1317.93; 1044.000;   65.750;16838.250; 1.23415
1321.94; 1011.000;   46.750;16825.250; 1.24056
1325.95;  978.000;   64.750;16797.250; 1.26297
1329.96;  980.000;   63.750;16802.250; 1.26170
1333.96;  946.000;   52.750;16773.250; 1.27228
1337.96;  911.000;   63.750;16776.250; 1.29503
1341.96;  895.000;   46.750;16748.250; 1.29423
1345.96;  872.000;   59.750;16622.250; 1.30944
1349.95;  839.000;   42.750;16410.250; 1.31293
1353.95;  816.000;   67.750;16154.250; 1.33241
1357.94;  759.000;   50.750;15843.250; 1.34826
1361.92;  737.000;   50.750;15571.250; 1.35442
1365.91;  719.000;   46.750;15308.250; 1.35607
1369.89;  669.000;   50.750;15042.250; 1.38468
1373.87;  617.000;   48.750;14460.250; 1.40417
1377.85;  563.000;   60.750;13607.250; 1.43091
1381.82;  484.000;   48.750;12795.250; 1.46665
1385.80;  429.000;   50.750;12441.250; 1.51531
1389.77;  366.000;   54.750;12376.250; 1.59755
1393.74;  322.000;   63.750;12523.250; 1.68346
1397.70;  269.000;   57.750;12861.250; 1.78253
1401.66;  219.000;   57.750;13177.250; 1.91042
1405.62;  196.000;   34.750;13448.250; 1.92004
1409.58;  168.000;   50.750;13653.250; 2.06451
1413.54;  162.000;   50.750;13787.250; 2.09158
1417.49;  122.000;   27.750;13838.250; 2.16593
1421.44;  131.000;   63.750;13894.250; 2.31315
1425.39;  123.000;   54.750;13879.250; 2.30655
1429.33;  129.000;   64.750;13864.250; 2.33199
1433.27;  120.000;   54.750;13809.250; 2.32386
1437.21;  114.000;   48.750;13776.250; 2.32301
1441.15;  125.000;   52.750;13748.250; 2.27774
1445.09;  113.000;   60.750;13691.250; 2.41643
1449.02;   96.000;   57.750;13611.250; 2.54942
1452.95;  117.000;   52.750;13536.250; 2.32193
1456.87;  100.000;   53.750;13439.250; 2.46152
1460.80;   94.000;   43.750;13345.250; 2.42276
1464.72;  102.000;   59.750;13253.250; 2.49453
1468.64;   99.000;   43.750;13131.250; 2.37452
1472.55;  114.000;   63.750;13051.250; 2.41239
1476.47;  107.000;   43.750;12969.250; 2.31039
1480.38;  104.000;   38.750;12870.250; 2.29370
1484.28;  110.000;   54.750;12750.250; 2.36132
1488.19;  107.000;   50.750;12663.250; 2.35068
1492.09;   96.000;   28.750;12533.250; 2.26937
1495.99;  123.000;   58.750;12434.250; 2.28469
1499.89;  127.000;   46.750;12320.250; 2.18452
1503.78;  140.000;   48.750;12228.250; 2.12540
1507.67;  137.000;   52.750;12113.250; 2.15580
1511.56;  127.000;   33.750;11982.250; 2.10766
1515.44;  145.000;   50.750;11884.250; 2.09883
1519.33;  145.000;   48.750;11757.250; 2.08510
1523.21;  163.000;   35.750;11649.250; 1.96031
1527.08;  170.000;   57.750;11506.250; 2.00856
1530.96;  159.000;   39.750;11368.250; 1.97771
1534.83;  184.000;   52.750;11249.250; 1.93098
1538.70;  190.000;   57.750;11082.250; 1.92096
1542.56;  183.000;   28.750;10958.250; 1.85038
1546.42;  180.000;   39.750;10836.250; 1.88638
1550.28;  201.000;   58.750;10683.250; 1.87326
1554.14;  185.000;   39.750;10510.250; 1.85785
1557.99;  190.000;   41.750;10388.250; 1.84380
1561.84;  191.000;   33.750;10234.250; 1.81203
1565.69;  205.000;   40.750;10095.250; 1.78686
1569.54;  206.000;   24.750; 9939.250; 1.73799
1573.38;  226.000;   40.750; 9804.250; 1.72185
1577.22;  206.000;   31.750; 9649.250; 1.74189
1581.05;  219.000;   49.750; 9522.250; 1.74794
1584.89;  234.000;   45.750; 9369.250; 1.69484
1588.72;  210.000;   41.750; 9215.250; 1.73658
1592.54;  216.000;   35.750; 9061.250; 1.69960
1596.37;  222.000;   22.750; 8908.250; 1.64928
1600.19;  235.000;   43.750; 8774.250; 1.65944
1604.01;  226.000;   33.750; 8610.250; 1.64944
1607.82;  218.000;   31.750; 8473.250; 1.65632
1611.63;  225.000;   22.750; 8316.250; 1.61285
1615.44;  236.000;   26.750; 8167.250; 1.58999
1619.25;  213.000;   34.750; 7998.250; 1.65007
1623.05;  214.000;   13.750; 7822.250; 1.59100
1626.85;  226.000;   26.750; 7668.250; 1.58378
1630.64;  234.000;   42.750; 7511.250; 1.59163
1634.44;  217.000;   26.750; 7307.250; 1.58284
1638.23;  196.000;   18.750; 7114.250; 1.60240
1642.01;  216.000;   39.750; 6938.250; 1.59263
1645.80;  212.000;   42.750; 6743.250; 1.59758
1649.58;  214.000;   38.750; 6531.250; 1.56875
1653.35;  230.000;   44.750; 6309.250; 1.52913
1657.13;  187.000;   36.750; 6064.250; 1.60332
1660.90;  189.000;   34.750; 5808.250; 1.57321
1664.67;  175.000;   28.750; 5491.250; 1.57230
1668.43;  174.000;   24.750; 5119.250; 1.53319
1672.19;  178.000;   35.750; 4656.250; 1.51164
1675.95;  161.000;   31.750; 4113.250; 1.49939
1679.70;  142.000;   46.750; 3563.250; 1.56725
1683.46;  127.000;   23.750; 3047.250; 1.46662
1687.20;  120.000;   39.750; 2617.250; 1.50675
1690.95;  110.000;   36.750; 2243.250; 1.47890
1694.69;  100.000;   56.750; 1964.250; 1.64448
1698.43;   88.000;   22.750; 1699.250; 1.40982
1702.16;  109.000;   44.750; 1533.250; 1.36488
1705.89;  101.000;   30.750; 1372.250; 1.28094
1709.62;  100.000;   25.750; 1277.250; 1.22673
1713.35;   81.000;   17.750; 1187.250; 1.26694
1717.07;   81.000;   42.750; 1123.250; 1.45099
1720.79;   88.000;   41.750; 1064.250; 1.34455
1724.50;  104.000;   44.750; 1019.250; 1.21609
1728.21;   91.000;   29.750;  974.250; 1.18810
1731.92;   92.000;   25.750;  931.250; 1.13570
1735.63;   92.000;   34.750;  925.250; 1.19186
1739.33;   93.000;   23.750;  909.250; 1.10677
1743.02;   85.000;   21.750;  865.250; 1.12502
1746.72;   95.000;   33.750;  872.250; 1.13640
1750.41;   99.000;   37.750;  865.250; 1.13066
1754.10;   89.000;   44.750;  846.250; 1.25799

