
Integration time [ms]:  10.000
Averaging Nr. [scans]: 10
Smoothing Nr. [pixels]: 0
Data measured with spectrometer [name]: 1911294U1
Wave   ;Sample   ;Dark     ;Reference;Absorbance
[nm]   ;[counts] ;[counts] ;[counts] ;[A.U]

 860.61; 1617.700; 1551.700; 1907.800; 0.73203
 864.82; 1573.900; 1505.600; 1955.500; 0.81870
 869.02; 1580.400; 1514.900; 2034.000; 0.89901
 873.23; 1604.200; 1530.300; 2122.800; 0.90404
 877.43; 1562.400; 1494.800; 2149.500; 0.98610
 881.63; 1601.300; 1530.800; 2256.000; 1.01227
 885.83; 1580.800; 1499.600; 2300.600; 0.99408
 890.03; 1582.800; 1501.000; 2363.200; 1.02285
 894.23; 1588.300; 1498.400; 2434.200; 1.01742
 898.42; 1571.700; 1490.200; 2489.500; 1.08854
 902.62; 1618.100; 1522.400; 2605.100; 1.05360
 906.81; 1580.900; 1488.700; 2644.500; 1.09815
 911.00; 1591.200; 1494.400; 2732.000; 1.10670
 915.19; 1601.500; 1503.000; 2840.700; 1.13292
 919.38; 1645.100; 1541.400; 2988.000; 1.14457
 923.57; 1585.700; 1477.600; 3060.100; 1.16552
 927.76; 1631.100; 1511.200; 3297.300; 1.17309
 931.94; 1618.400; 1493.300; 3511.600; 1.20773
 936.13; 1649.400; 1516.000; 3764.700; 1.22678
 940.31; 1626.100; 1484.900; 3931.100; 1.23866
 944.49; 1701.200; 1547.000; 4163.000; 1.22955
 948.67; 1679.000; 1518.900; 4297.000; 1.23936
 952.85; 1654.600; 1493.400; 4427.000; 1.26004
 957.03; 1675.800; 1501.100; 4604.000; 1.24947
 961.21; 1691.400; 1518.200; 4778.500; 1.27471
 965.38; 1685.500; 1507.600; 4921.400; 1.28306
 969.55; 1683.700; 1505.800; 5072.200; 1.30205
 973.73; 1717.500; 1520.500; 5253.800; 1.27763
 977.90; 1709.600; 1511.100; 5413.200; 1.29354
 982.06; 1723.200; 1518.800; 5592.700; 1.29953
 986.23; 1718.200; 1506.000; 5748.000; 1.30083
 990.40; 1739.700; 1519.400; 5941.100; 1.30257
 994.56; 1760.300; 1538.400; 6129.700; 1.31578
 998.72; 1769.000; 1541.900; 6290.500; 1.32035
1002.88; 1745.100; 1510.200; 6415.300; 1.31976
1007.04; 1768.400; 1529.400; 6579.000; 1.32486
1011.20; 1769.400; 1519.900; 6717.500; 1.31873
1015.36; 1795.700; 1543.200; 6867.300; 1.32398
1019.51; 1764.400; 1510.000; 6947.400; 1.32987
1023.67; 1785.900; 1530.900; 7080.200; 1.33770
1027.82; 1774.900; 1512.800; 7172.800; 1.33435
1031.97; 1790.400; 1525.500; 7291.600; 1.33780
1036.12; 1787.800; 1523.900; 7384.200; 1.34648
1040.27; 1787.600; 1520.100; 7490.500; 1.34868
1044.41; 1798.700; 1522.700; 7585.300; 1.34175
1048.56; 1809.200; 1534.900; 7704.000; 1.35200
1052.70; 1806.000; 1519.500; 7789.500; 1.34014
1056.84; 1820.100; 1529.400; 7905.400; 1.34110
1060.98; 1789.100; 1501.100; 7985.000; 1.35244
1065.11; 1813.900; 1513.900; 8119.500; 1.34279
1069.25; 1826.100; 1526.700; 8264.000; 1.35223
1073.38; 1837.900; 1527.800; 8408.100; 1.34611
1077.52; 1860.100; 1546.500; 8548.800; 1.34886
1081.65; 1844.900; 1532.900; 8683.900; 1.36021
1085.77; 1846.100; 1527.000; 8829.600; 1.35955
1089.90; 1861.600; 1533.700; 8986.900; 1.35660
1094.03; 1835.600; 1500.400; 9113.600; 1.35626
1098.15; 1886.100; 1546.400; 9322.700; 1.35968
1102.27; 1833.800; 1489.800; 9441.600; 1.36391
1106.39; 1883.600; 1527.600; 9661.400; 1.35884
1110.51; 1916.400; 1551.400; 9878.200; 1.35819
1114.63; 1875.500; 1500.800;10067.700; 1.35914
1118.74; 1937.400; 1553.000;10360.700; 1.36008
1122.85; 1914.000; 1530.700;10522.800; 1.37032
1126.96; 1895.900; 1503.600;10642.400; 1.36727
1131.07; 1953.100; 1554.700;10786.500; 1.36497
1135.18; 1897.100; 1504.600;10802.100; 1.37453
1139.29; 1918.200; 1516.000;10868.600; 1.36649
1143.39; 1943.000; 1538.200;10912.400; 1.36469
1147.49; 1915.400; 1518.500;10897.900; 1.37349
1151.59; 1917.300; 1515.000;10914.000; 1.36853
1155.69; 1952.900; 1541.600;10966.800; 1.36013
1159.78; 1906.400; 1502.700;10951.200; 1.36930
1163.88; 1946.600; 1536.300;11019.900; 1.36387
1167.97; 1949.200; 1537.000;11049.100; 1.36317
1172.06; 1923.200; 1514.600;11052.300; 1.36815
1176.15; 1919.000; 1511.400;11073.900; 1.37034
1180.23; 1964.700; 1549.600;11155.900; 1.36440
1184.32; 1909.500; 1494.700;11140.100; 1.36648
1188.40; 1931.200; 1514.000;11201.700; 1.36588
1192.48; 1934.200; 1515.300;11260.500; 1.36668
1196.56; 1942.200; 1521.200;11309.800; 1.36644
1200.64; 1961.700; 1534.600;11380.300; 1.36272
1204.71; 1941.500; 1514.200;11415.100; 1.36494
1208.78; 1951.600; 1522.400;11476.100; 1.36532
1212.85; 1978.200; 1547.900;11559.600; 1.36674
1216.92; 1900.400; 1476.200;11533.500; 1.37491
1220.99; 1969.100; 1534.300;11668.800; 1.36751
1225.05; 1966.700; 1527.500;11719.100; 1.36558
1229.11; 1941.100; 1506.200;11777.200; 1.37322
1233.17; 1978.900; 1537.300;11867.500; 1.36908
1237.23; 1980.500; 1535.100;11935.000; 1.36828
1241.29; 1976.100; 1531.200;11992.800; 1.37134
1245.34; 2009.500; 1560.000;12107.000; 1.37040
1249.39; 1952.800; 1500.000;12117.900; 1.37013
1253.44; 1972.900; 1518.900;12212.500; 1.37207
1257.49; 2013.900; 1552.800;12334.500; 1.36889
1261.53; 1975.600; 1518.900;12369.900; 1.37584
1265.58; 1984.800; 1525.900;12452.600; 1.37677
1269.62; 1988.700; 1519.600;12529.800; 1.37053
1273.65; 1992.100; 1519.900;12603.400; 1.37055
1277.69; 1986.600; 1518.000;12681.800; 1.37701
1281.72; 2009.700; 1530.100;12773.400; 1.37001
1285.76; 2007.900; 1529.900;12851.500; 1.37448
1289.79; 2006.100; 1520.800;12909.400; 1.37046
1293.81; 1993.700; 1511.100;12974.600; 1.37573
1297.84; 1977.600; 1490.200;13004.900; 1.37337
1301.86; 2037.500; 1546.100;13137.300; 1.37269
1305.88; 2010.500; 1520.800;13163.800; 1.37613
1309.90; 2029.700; 1541.300;13243.300; 1.37948
1313.92; 1992.100; 1497.800;13236.900; 1.37564
1317.93; 2026.100; 1527.400;13321.700; 1.37383
1321.94; 2016.600; 1516.400;13349.300; 1.37395
1325.95; 2018.800; 1515.800;13392.300; 1.37312
1329.96; 2036.800; 1527.200;13449.200; 1.36912
1333.96; 2039.400; 1523.500;13501.700; 1.36583
1337.96; 2032.500; 1525.700;13575.100; 1.37613
1341.96; 2042.000; 1530.100;13604.900; 1.37269
1345.96; 2023.600; 1514.800;13535.100; 1.37337
1349.95; 2006.400; 1504.900;13357.000; 1.37352
1353.95; 1984.500; 1500.800;13080.300; 1.37911
1357.94; 1988.600; 1519.000;12810.900; 1.38104
1361.92; 1986.500; 1525.200;12577.700; 1.37948
1365.91; 1966.400; 1509.100;12495.800; 1.38067
1369.89; 1959.200; 1500.900;12522.200; 1.38108
1373.87; 1942.600; 1483.400;12502.700; 1.38015
1377.85; 1990.300; 1541.800;12256.400; 1.37821
1381.82; 1929.400; 1495.800;11839.800; 1.37760
1385.80; 1976.100; 1542.900;11856.600; 1.37673
1389.77; 1958.600; 1524.900;11869.500; 1.37752
1393.74; 1944.200; 1509.900;11804.200; 1.37481
1397.70; 1992.100; 1552.300;11918.000; 1.37234
1401.66; 1970.400; 1522.100;11986.800; 1.36816
1405.62; 1949.400; 1502.000;12055.500; 1.37270
1409.58; 1982.700; 1528.700;12203.600; 1.37131
1413.54; 1978.700; 1519.400;12293.200; 1.37027
1417.49; 1933.300; 1476.800;12292.900; 1.37463
1421.44; 1988.200; 1523.100;12384.600; 1.36834
1425.39; 1974.300; 1510.500;12382.800; 1.36999
1429.33; 1991.000; 1525.700;12395.900; 1.36850
1433.27; 1982.200; 1523.700;12370.200; 1.37395
1437.21; 1967.100; 1502.800;12323.500; 1.36746
1441.15; 2008.300; 1543.700;12339.600; 1.36618
1445.09; 1990.000; 1531.000;12292.800; 1.37007
1449.02; 1939.900; 1489.700;12200.500; 1.37642
1452.95; 1990.700; 1529.700;12230.100; 1.36570
1456.87; 1987.800; 1524.100;12175.900; 1.36119
1460.80; 1967.900; 1510.600;12112.200; 1.36517
1464.72; 1952.900; 1502.500;12023.800; 1.36847
1468.64; 1952.200; 1502.300;11961.600; 1.36639
1472.55; 1966.300; 1518.100;11913.700; 1.36538
1476.47; 1981.700; 1531.300;11884.300; 1.36147
1480.38; 1965.200; 1517.300;11801.000; 1.36097
1484.28; 1975.800; 1535.000;11762.600; 1.36553
1488.19; 1962.600; 1522.200;11690.100; 1.36338
1492.09; 1922.800; 1489.900;11596.700; 1.36823
1495.99; 1943.800; 1506.600;11539.600; 1.36075
1499.89; 1946.300; 1513.300;11504.200; 1.36312
1503.78; 1947.300; 1515.200;11427.600; 1.36059
1507.67; 1971.300; 1539.800;11381.400; 1.35808
1511.56; 1921.600; 1498.300;11268.800; 1.36327
1515.44; 1953.300; 1525.700;11237.600; 1.35627
1519.33; 1935.800; 1515.200;11135.600; 1.35932
1523.21; 1941.000; 1523.900;11078.700; 1.35998
1527.08; 1931.700; 1519.400;10990.300; 1.36118
1530.96; 1917.000; 1500.300;10886.000; 1.35264
1534.83; 1955.400; 1544.300;10845.200; 1.35458
1538.70; 1913.800; 1508.600;10715.900; 1.35646
1542.56; 1898.800; 1500.900;10619.900; 1.36017
1546.42; 1915.000; 1517.300;10554.500; 1.35648
1550.28; 1908.600; 1513.400;10453.100; 1.35451
1554.14; 1906.200; 1508.800;10345.500; 1.34706
1557.99; 1905.800; 1525.700;10266.900; 1.36167
1561.84; 1879.400; 1498.400;10122.900; 1.35481
1565.69; 1891.000; 1516.200;10052.800; 1.35749
1569.54; 1878.700; 1503.300; 9933.900; 1.35136
1573.38; 1871.900; 1501.700; 9824.400; 1.35183
1577.22; 1894.200; 1527.000; 9752.100; 1.35024
1581.05; 1877.600; 1512.400; 9625.200; 1.34664
1584.89; 1883.900; 1524.900; 9522.100; 1.34784
1588.72; 1876.100; 1517.700; 9409.100; 1.34279
1592.54; 1848.900; 1506.200; 9274.600; 1.35542
1596.37; 1868.500; 1517.200; 9177.600; 1.33857
1600.19; 1848.400; 1510.100; 9050.400; 1.34809
1604.01; 1820.700; 1486.400; 8899.400; 1.34586
1607.82; 1832.200; 1509.800; 8796.900; 1.35416
1611.63; 1807.400; 1480.100; 8624.900; 1.33904
1615.44; 1876.800; 1553.300; 8575.400; 1.33659
1619.25; 1800.800; 1486.200; 8361.300; 1.33952
1623.05; 1790.100; 1479.000; 8208.600; 1.33509
1626.85; 1819.400; 1513.000; 8103.300; 1.33262
1630.64; 1826.000; 1524.000; 7969.700; 1.32926
1634.44; 1798.400; 1504.600; 7800.200; 1.33099
1638.23; 1793.200; 1503.300; 7652.600; 1.32658
1642.01; 1791.800; 1506.800; 7500.000; 1.32281
1645.80; 1776.000; 1499.800; 7336.400; 1.32494
1649.58; 1778.000; 1507.600; 7165.100; 1.32062
1653.35; 1818.100; 1554.000; 7043.000; 1.31772
1657.13; 1738.900; 1486.500; 6816.300; 1.32462
1660.90; 1744.200; 1500.200; 6658.700; 1.32513
1664.67; 1729.100; 1492.900; 6464.500; 1.32322
1668.43; 1735.400; 1506.200; 6271.300; 1.31786
1672.19; 1749.300; 1522.100; 6011.600; 1.29579
1675.95; 1698.500; 1493.800; 5613.400; 1.30374
1679.70; 1723.800; 1530.900; 5235.900; 1.28346
1683.46; 1674.100; 1497.800; 4742.900; 1.26498
1687.20; 1666.200; 1511.400; 4295.600; 1.25493
1690.95; 1643.100; 1504.400; 3867.300; 1.23137
1694.69; 1642.400; 1514.400; 3526.700; 1.19648
1698.43; 1595.100; 1482.500; 3185.600; 1.17970
1702.16; 1602.600; 1497.600; 2968.200; 1.14631
1705.89; 1598.700; 1499.300; 2779.100; 1.10976
1709.62; 1583.600; 1493.100; 2618.100; 1.09450
1713.35; 1612.000; 1522.600; 2525.400; 1.04988
1717.07; 1572.300; 1492.000; 2393.400; 1.05020
1720.79; 1596.600; 1513.300; 2338.300; 0.99581
1724.50; 1597.000; 1514.000; 2272.300; 0.96076
1728.21; 1570.400; 1499.400; 2201.400; 0.99508
1731.92; 1568.800; 1495.900; 2152.500; 0.95457
1735.63; 1553.500; 1483.800; 2109.800; 0.95334
1739.33; 1595.700; 1525.100; 2113.700; 0.92102
1743.02; 1568.200; 1493.200; 2053.800; 0.87359
1746.72; 1563.600; 1494.300; 2031.700; 0.88956
1750.41; 1573.900; 1502.900; 2014.600; 0.85776
1754.10; 1583.100; 1515.500; 2011.500; 0.86553

