
Integration time [ms]:   3.780
Averaging Nr. [scans]: 1
Smoothing Nr. [pixels]: 0
Data measured with spectrometer [name]: 1911294U1
Wave   ;Sample   ;Dark     ;Reference;Absorbance
[nm]   ;[counts] ;[counts] ;[counts] ;[A.U]

 860.61;  117.500;   67.750;  833.250; 1.18715
 864.82;  156.500;   49.750;  998.250; 0.94867
 869.02;  165.500;   59.750; 1169.250; 1.02085
 873.23;  177.500;   54.750; 1288.250; 1.00212
 877.43;  171.500;   53.750; 1415.250; 1.06306
 881.63;  194.500;   54.750; 1540.250; 1.02652
 885.83;  201.500;   49.750; 1684.250; 1.03226
 890.03;  208.500;   28.750; 1796.250; 0.99269
 894.23;  224.500;   40.750; 1929.250; 1.01189
 898.42;  229.500;   37.750; 2071.250; 1.02551
 902.62;  254.500;   56.750; 2213.250; 1.03763
 906.81;  256.500;   35.750; 2337.250; 1.01811
 911.00;  271.500;   53.750; 2523.250; 1.05465
 915.19;  291.500;   45.750; 2712.250; 1.03545
 919.38;  330.500;   47.750; 2963.250; 1.01331
 923.57;  358.500;   53.750; 3292.250; 1.02640
 927.76;  381.500;   40.750; 3728.250; 1.03430
 931.94;  439.500;   39.750; 4163.250; 1.01348
 936.13;  473.500;   53.750; 4579.250; 1.03268
 940.31;  498.500;   50.750; 4873.250; 1.03224
 944.49;  542.500;   63.750; 5167.250; 1.02776
 948.67;  552.500;   49.750; 5411.250; 1.02793
 952.85;  563.500;   50.750; 5679.250; 1.04049
 957.03;  582.500;   47.750; 5965.250; 1.04399
 961.21;  604.500;   58.750; 6236.250; 1.05382
 965.38;  622.500;   44.750; 6471.250; 1.04623
 969.55;  629.500;   37.750; 6719.250; 1.05274
 973.73;  681.500;   56.750; 6971.250; 1.04405
 977.90;  686.500;   42.750; 7222.250; 1.04738
 982.06;  737.500;   44.750; 7469.250; 1.03009
 986.23;  728.500;   51.750; 7739.250; 1.05536
 990.40;  766.500;   61.750; 7985.250; 1.05088
 994.56;  780.500;   65.750; 8243.250; 1.05847
 998.72;  810.500;   58.750; 8450.250; 1.04777
1002.88;  832.500;   57.750; 8670.250; 1.04597
1007.04;  835.500;   52.750; 8879.250; 1.05217
1011.20;  856.500;   49.750; 9068.250; 1.04840
1015.36;  899.500;   45.750; 9257.250; 1.03300
1019.51;  888.500;   60.750; 9402.250; 1.05252
1023.67;  919.500;   69.750; 9574.250; 1.04864
1027.82;  929.500;   61.750; 9729.250; 1.04692
1031.97;  941.500;   55.750; 9851.250; 1.04372
1036.12;  947.500;   49.750;10022.250; 1.04565
1040.27;  987.500;   61.750;10174.250; 1.03836
1044.41;  995.500;   73.750;10320.250; 1.04596
1048.56; 1002.500;   53.750;10468.250; 1.04049
1052.70; 1026.500;   58.750;10629.250; 1.03833
1056.84; 1039.500;   47.750;10798.250; 1.03503
1060.98; 1045.500;   67.750;10996.250; 1.04833
1065.11; 1083.500;   63.750;11181.250; 1.03751
1069.25; 1090.500;   63.750;11391.250; 1.04267
1073.38; 1114.500;   56.750;11632.250; 1.03916
1077.52; 1135.500;   70.750;11862.250; 1.04432
1081.65; 1154.500;   62.750;12105.250; 1.04259
1085.77; 1167.500;   60.750;12352.250; 1.04556
1089.90; 1188.500;   56.750;12603.250; 1.04477
1094.03; 1216.500;   65.750;12857.250; 1.04594
1098.15; 1249.500;   68.750;13146.250; 1.04437
1102.27; 1252.500;   66.750;13436.250; 1.05212
1106.39; 1297.500;   69.750;13733.250; 1.04645
1110.51; 1313.500;   69.750;14055.250; 1.05094
1114.63; 1353.500;   49.750;14464.250; 1.04361
1118.74; 1372.500;   73.750;14874.250; 1.05675
1122.85; 1399.500;   70.750;15167.250; 1.05543
1126.96; 1398.500;   61.750;15350.250; 1.05831
1131.07; 1400.500;   57.750;15457.250; 1.05951
1135.18; 1384.500;   63.750;15545.250; 1.06899
1139.29; 1363.500;   45.750;15604.250; 1.07213
1143.39; 1351.500;   62.750;15613.250; 1.08158
1147.49; 1310.500;   71.750;15592.250; 1.09792
1151.59; 1289.500;   71.750;15618.250; 1.10607
1155.69; 1287.500;   64.750;15618.250; 1.10449
1159.78; 1247.500;   61.750;15619.250; 1.11795
1163.88; 1269.500;   66.750;15654.250; 1.11260
1167.97; 1234.500;   60.750;15657.250; 1.12345
1172.06; 1230.500;   60.750;15668.250; 1.12524
1176.15; 1223.500;   53.750;15670.250; 1.12549
1180.23; 1233.500;   59.750;15679.250; 1.12409
1184.32; 1208.500;   50.750;15690.250; 1.13061
1188.40; 1212.500;   57.750;15712.250; 1.13215
1192.48; 1202.500;   55.750;15725.250; 1.13559
1196.56; 1219.500;   53.750;15754.250; 1.12931
1200.64; 1230.500;   72.750;15783.250; 1.13258
1204.71; 1219.500;   50.750;15806.250; 1.12971
1208.78; 1231.500;   69.750;15849.250; 1.13298
1212.85; 1228.500;   54.750;15854.250; 1.12907
1216.92; 1221.500;   37.750;15840.250; 1.12547
1220.99; 1250.500;   49.750;15897.250; 1.12051
1225.05; 1249.500;   60.750;15920.250; 1.12520
1229.11; 1243.500;   53.750;15924.250; 1.12513
1233.17; 1245.500;   58.750;15926.250; 1.12615
1237.23; 1252.500;   49.750;15943.250; 1.12104
1241.29; 1252.500;   51.750;15960.250; 1.12218
1245.34; 1278.500;   79.750;16029.250; 1.12402
1249.39; 1263.500;   55.750;16081.250; 1.12283
1253.44; 1266.500;   36.750;16122.250; 1.11662
1257.49; 1295.500;   73.750;16225.250; 1.12123
1261.53; 1295.500;   40.750;16273.250; 1.11183
1265.58; 1304.500;   46.750;16338.250; 1.11237
1269.62; 1289.500;   46.750;16412.250; 1.11955
1273.65; 1296.500;   55.750;16472.250; 1.12160
1277.69; 1305.500;   53.750;16552.250; 1.11993
1281.72; 1313.500;   65.750;16612.250; 1.12258
1285.76; 1301.500;   66.750;16662.250; 1.12841
1289.79; 1288.500;   56.750;16697.250; 1.13064
1293.81; 1283.500;   44.750;16713.250; 1.12891
1297.84; 1282.500;   49.750;16765.250; 1.13224
1301.86; 1288.500;   43.750;16807.250; 1.12928
1305.88; 1268.500;   58.750;16824.250; 1.14172
1309.90; 1259.500;   49.750;16842.250; 1.14242
1313.92; 1235.500;   55.750;16828.250; 1.15281
1317.93; 1244.500;   65.750;16838.250; 1.15318
1321.94; 1201.500;   46.750;16825.250; 1.16227
1325.95; 1179.500;   64.750;16797.250; 1.17638
1329.96; 1157.500;   63.750;16802.250; 1.18480
1333.96; 1125.500;   52.750;16773.250; 1.19275
1337.96; 1113.500;   63.750;16776.250; 1.20196
1341.96; 1060.500;   46.750;16748.250; 1.21682
1345.96; 1047.500;   59.750;16622.250; 1.22448
1349.95; 1006.500;   42.750;16410.250; 1.23002
1353.95;  964.500;   67.750;16154.250; 1.25379
1357.94;  940.500;   50.750;15843.250; 1.24918
1361.92;  901.500;   50.750;15571.250; 1.26110
1365.91;  859.500;   46.750;15308.250; 1.27364
1369.89;  798.500;   50.750;15042.250; 1.30209
1373.87;  751.500;   48.750;14460.250; 1.31191
1377.85;  691.500;   60.750;13607.250; 1.33197
1381.82;  584.500;   48.750;12795.250; 1.37643
1385.80;  505.500;   50.750;12441.250; 1.43532
1389.77;  446.500;   54.750;12376.250; 1.49765
1393.74;  373.500;   63.750;12523.250; 1.60449
1397.70;  335.500;   57.750;12861.250; 1.66367
1401.66;  265.500;   57.750;13177.250; 1.80038
1405.62;  238.500;   34.750;13448.250; 1.81844
1409.58;  208.500;   50.750;13653.250; 1.93565
1413.54;  174.500;   50.750;13787.250; 2.04533
1417.49;  143.500;   27.750;13838.250; 2.07669
1421.44;  158.500;   63.750;13894.250; 2.16426
1425.39;  152.500;   54.750;13879.250; 2.15053
1429.33;  135.500;   64.750;13864.250; 2.29014
1433.27;  116.500;   54.750;13809.250; 2.34781
1437.21;  105.500;   48.750;13776.250; 2.38363
1441.15;  118.500;   52.750;13748.250; 2.31868
1445.09;  121.500;   60.750;13691.250; 2.35097
1449.02;   97.500;   57.750;13611.250; 2.53271
1452.95;  125.500;   52.750;13536.250; 2.26797
1456.87;  104.500;   53.750;13439.250; 2.42120
1460.80;   96.500;   43.750;13345.250; 2.40168
1464.72;  106.500;   59.750;13253.250; 2.45058
1468.64;  108.500;   43.750;13131.250; 2.30562
1472.55;  116.500;   63.750;13051.250; 2.39130
1476.47;  115.500;   43.750;12969.250; 2.25563
1480.38;  111.500;   38.750;12870.250; 2.24644
1484.28;  124.500;   54.750;12750.250; 2.26011
1488.19;  129.500;   50.750;12663.250; 2.20455
1492.09;  125.500;   28.750;12533.250; 2.11142
1495.99;  141.500;   58.750;12434.250; 2.17479
1499.89;  145.500;   46.750;12320.250; 2.09443
1503.78;  151.500;   48.750;12228.250; 2.07385
1507.67;  168.500;   52.750;12113.250; 2.01784
1511.56;  160.500;   33.750;11982.250; 1.97437
1515.44;  174.500;   50.750;11884.250; 1.98057
1519.33;  180.500;   48.750;11757.250; 1.94875
1523.21;  199.500;   35.750;11649.250; 1.85078
1527.08;  207.500;   57.750;11506.250; 1.88338
1530.96;  207.500;   39.750;11368.250; 1.82951
1534.83;  230.500;   52.750;11249.250; 1.79927
1538.70;  237.500;   57.750;11082.250; 1.78769
1542.56;  215.500;   28.750;10958.250; 1.76734
1546.42;  243.500;   39.750;10836.250; 1.72419
1550.28;  257.500;   58.750;10683.250; 1.72800
1554.14;  242.500;   39.750;10510.250; 1.71301
1557.99;  254.500;   41.750;10388.250; 1.68692
1561.84;  267.500;   33.750;10234.250; 1.63987
1565.69;  269.500;   40.750;10095.250; 1.64300
1569.54;  258.500;   24.750; 9939.250; 1.62752
1573.38;  272.500;   40.750; 9804.250; 1.62459
1577.22;  272.500;   31.750; 9649.250; 1.60150
1581.05;  283.500;   49.750; 9522.250; 1.60771
1584.89;  290.500;   45.750; 9369.250; 1.58086
1588.72;  280.500;   41.750; 9215.250; 1.58459
1592.54;  287.500;   35.750; 9061.250; 1.55450
1596.37;  279.500;   22.750; 8908.250; 1.53917
1600.19;  295.500;   43.750; 8774.250; 1.54007
1604.01;  286.500;   33.750; 8610.250; 1.53062
1607.82;  301.500;   31.750; 8473.250; 1.49546
1611.63;  275.500;   22.750; 8316.250; 1.51605
1615.44;  277.500;   26.750; 8167.250; 1.51141
1619.25;  279.500;   34.750; 7998.250; 1.51238
1623.05;  264.500;   13.750; 7822.250; 1.49333
1626.85;  278.500;   26.750; 7668.250; 1.48221
1630.64;  299.500;   42.750; 7511.250; 1.46372
1634.44;  266.500;   26.750; 7307.250; 1.48240
1638.23;  263.500;   18.750; 7114.250; 1.46226
1642.01;  263.500;   39.750; 6938.250; 1.48899
1645.80;  272.500;   42.750; 6743.250; 1.46485
1649.58;  265.500;   38.750; 6531.250; 1.45686
1653.35;  262.500;   44.750; 6309.250; 1.45893
1657.13;  241.500;   36.750; 6064.250; 1.46891
1660.90;  243.500;   34.750; 5808.250; 1.44181
1664.67;  215.500;   28.750; 5491.250; 1.46613
1668.43;  228.500;   24.750; 5119.250; 1.39800
1672.19;  202.500;   35.750; 4656.250; 1.44262
1675.95;  178.500;   31.750; 4113.250; 1.44424
1679.70;  155.500;   46.750; 3563.250; 1.50968
1683.46;  153.500;   23.750; 3047.250; 1.36740
1687.20;  147.500;   39.750; 2617.250; 1.37878
1690.95;  124.500;   36.750; 2243.250; 1.40046
1694.69;  126.500;   56.750; 1964.250; 1.43692
1698.43;  117.500;   22.750; 1699.250; 1.24782
1702.16;  100.500;   44.750; 1533.250; 1.42650
1705.89;  109.500;   30.750; 1372.250; 1.23134
1709.62;  101.500;   25.750; 1277.250; 1.21805
1713.35;   90.500;   17.750; 1187.250; 1.20617
1717.07;  100.500;   42.750; 1123.250; 1.27207
1720.79;   99.500;   41.750; 1064.250; 1.24811
1724.50;  102.500;   44.750; 1019.250; 1.22723
1728.21;  100.500;   29.750;  974.250; 1.12548
1731.92;   84.500;   25.750;  931.250; 1.18788
1735.63;   95.500;   34.750;  925.250; 1.16609
1739.33;   95.500;   23.750;  909.250; 1.09137
1743.02;   92.500;   21.750;  865.250; 1.07636
1746.72;  103.500;   33.750;  872.250; 1.07996
1750.41;   99.500;   37.750;  865.250; 1.12713
1754.10;   95.500;   44.750;  846.250; 1.19847

