
Integration time [ms]:   3.780
Averaging Nr. [scans]: 1
Smoothing Nr. [pixels]: 0
Data measured with spectrometer [name]: 1911294U1
Wave   ;Sample   ;Dark     ;Reference;Absorbance
[nm]   ;[counts] ;[counts] ;[counts] ;[A.U]

 860.61;  119.750;   67.750;  833.250; 1.16794
 864.82;  133.750;   49.750;  998.250; 1.05276
 869.02;  162.750;   59.750; 1169.250; 1.03229
 873.23;  161.750;   54.750; 1288.250; 1.06176
 877.43;  168.750;   53.750; 1415.250; 1.07332
 881.63;  183.750;   54.750; 1540.250; 1.06128
 885.83;  194.750;   49.750; 1684.250; 1.05202
 890.03;  199.750;   28.750; 1796.250; 1.01436
 894.23;  192.750;   40.750; 1929.250; 1.09427
 898.42;  218.750;   37.750; 2071.250; 1.05057
 902.62;  245.750;   56.750; 2213.250; 1.05729
 906.81;  243.750;   35.750; 2337.250; 1.04395
 911.00;  249.750;   53.750; 2523.250; 1.10035
 915.19;  290.750;   45.750; 2712.250; 1.03678
 919.38;  301.750;   47.750; 2963.250; 1.05988
 923.57;  334.750;   53.750; 3292.250; 1.06164
 927.76;  371.750;   40.750; 3728.250; 1.04690
 931.94;  402.750;   39.750; 4163.250; 1.05536
 936.13;  435.750;   53.750; 4579.250; 1.07360
 940.31;  468.750;   50.750; 4873.250; 1.06210
 944.49;  495.750;   63.750; 5167.250; 1.07238
 948.67;  509.750;   49.750; 5411.250; 1.06653
 952.85;  529.750;   50.750; 5679.250; 1.07006
 957.03;  561.750;   47.750; 5965.250; 1.06118
 961.21;  568.750;   58.750; 6236.250; 1.08324
 965.38;  581.750;   44.750; 6471.250; 1.07800
 969.55;  590.750;   37.750; 6719.250; 1.08215
 973.73;  618.750;   56.750; 6971.250; 1.09002
 977.90;  636.750;   42.750; 7222.250; 1.08231
 982.06;  680.750;   44.750; 7469.250; 1.06721
 986.23;  656.750;   51.750; 7739.250; 1.10403
 990.40;  703.750;   61.750; 7985.250; 1.09138
 994.56;  733.750;   65.750; 8243.250; 1.08784
 998.72;  732.750;   58.750; 8450.250; 1.09518
1002.88;  756.750;   57.750; 8670.250; 1.09065
1007.04;  784.750;   52.750; 8879.250; 1.08128
1011.20;  793.750;   49.750; 9068.250; 1.08356
1015.36;  808.750;   45.750; 9257.250; 1.08181
1019.51;  818.750;   60.750; 9402.250; 1.09075
1023.67;  836.750;   69.750; 9574.250; 1.09313
1027.82;  846.750;   61.750; 9729.250; 1.09044
1031.97;  856.750;   55.750; 9851.250; 1.08739
1036.12;  870.750;   49.750;10022.250; 1.08446
1040.27;  881.750;   61.750;10174.250; 1.09104
1044.41;  894.750;   73.750;10320.250; 1.09623
1048.56;  917.750;   53.750;10468.250; 1.08112
1052.70;  926.750;   58.750;10629.250; 1.08558
1056.84;  935.750;   47.750;10798.250; 1.08302
1060.98;  948.750;   67.750;10996.250; 1.09358
1065.11;  981.750;   63.750;11181.250; 1.08316
1069.25;  974.750;   63.750;11391.250; 1.09462
1073.38; 1005.750;   56.750;11632.250; 1.08627
1077.52; 1037.750;   70.750;11862.250; 1.08614
1081.65; 1060.750;   62.750;12105.250; 1.08159
1085.77; 1058.750;   60.750;12352.250; 1.09047
1089.90; 1075.750;   56.750;12603.250; 1.09035
1094.03; 1088.750;   65.750;12857.250; 1.09705
1098.15; 1118.750;   68.750;13146.250; 1.09534
1102.27; 1138.750;   66.750;13436.250; 1.09592
1106.39; 1155.750;   69.750;13733.250; 1.09973
1110.51; 1185.750;   69.750;14055.250; 1.09801
1114.63; 1210.750;   49.750;14464.250; 1.09397
1118.74; 1241.750;   73.750;14874.250; 1.10283
1122.85; 1265.750;   70.750;15167.250; 1.10151
1126.96; 1249.750;   61.750;15350.250; 1.10955
1131.07; 1268.750;   57.750;15457.250; 1.10436
1135.18; 1241.750;   63.750;15545.250; 1.11867
1139.29; 1216.750;   45.750;15604.250; 1.12341
1143.39; 1200.750;   62.750;15613.250; 1.13560
1147.49; 1166.750;   71.750;15592.250; 1.15149
1151.59; 1158.750;   71.750;15618.250; 1.15540
1155.69; 1144.750;   64.750;15618.250; 1.15840
1159.78; 1122.750;   61.750;15619.250; 1.16622
1163.88; 1126.750;   66.750;15654.250; 1.16747
1167.97; 1115.750;   60.750;15657.250; 1.16977
1172.06; 1113.750;   60.750;15668.250; 1.17090
1176.15; 1100.750;   53.750;15670.250; 1.17364
1180.23; 1101.750;   59.750;15679.250; 1.17580
1184.32; 1079.750;   50.750;15690.250; 1.18181
1188.40; 1087.750;   57.750;15712.250; 1.18180
1192.48; 1078.750;   55.750;15725.250; 1.18518
1196.56; 1092.750;   53.750;15754.250; 1.17930
1200.64; 1112.750;   72.750;15783.250; 1.17916
1204.71; 1099.750;   50.750;15806.250; 1.17666
1208.78; 1105.750;   69.750;15849.250; 1.18273
1212.85; 1103.750;   54.750;15854.250; 1.17787
1216.92; 1096.750;   37.750;15840.250; 1.17383
1220.99; 1114.750;   49.750;15897.250; 1.17261
1225.05; 1123.750;   60.750;15920.250; 1.17376
1229.11; 1122.750;   53.750;15924.250; 1.17161
1233.17; 1107.750;   58.750;15926.250; 1.17973
1237.23; 1116.750;   49.750;15943.250; 1.17306
1241.29; 1117.750;   51.750;15960.250; 1.17387
1245.34; 1143.750;   79.750;16029.250; 1.17581
1249.39; 1123.750;   55.750;16081.250; 1.17624
1253.44; 1139.750;   36.750;16122.250; 1.16386
1257.49; 1160.750;   73.750;16225.250; 1.17198
1261.53; 1144.750;   40.750;16273.250; 1.16742
1265.58; 1153.750;   46.750;16338.250; 1.16781
1269.62; 1141.750;   46.750;16412.250; 1.17452
1273.65; 1141.750;   55.750;16472.250; 1.17945
1277.69; 1148.750;   53.750;16552.250; 1.17803
1281.72; 1164.750;   65.750;16612.250; 1.17771
1285.76; 1156.750;   66.750;16662.250; 1.18256
1289.79; 1144.750;   56.750;16697.250; 1.18454
1293.81; 1146.750;   44.750;16713.250; 1.17971
1297.84; 1146.750;   49.750;16765.250; 1.18291
1301.86; 1132.750;   43.750;16807.250; 1.18734
1305.88; 1116.750;   58.750;16824.250; 1.19993
1309.90; 1120.750;   49.750;16842.250; 1.19533
1313.92; 1079.750;   55.750;16828.250; 1.21430
1317.93; 1093.750;   65.750;16838.250; 1.21260
1321.94; 1058.750;   46.750;16825.250; 1.21957
1325.95; 1048.750;   64.750;16797.250; 1.23057
1329.96; 1032.750;   63.750;16802.250; 1.23739
1333.96; 1015.750;   52.750;16773.250; 1.23962
1337.96;  984.750;   63.750;16776.250; 1.25878
1341.96;  953.750;   46.750;16748.250; 1.26515
1345.96;  928.750;   59.750;16622.250; 1.28011
1349.95;  888.750;   42.750;16410.250; 1.28661
1353.95;  881.750;   67.750;16154.250; 1.29584
1357.94;  838.750;   50.750;15843.250; 1.30192
1361.92;  806.750;   50.750;15571.250; 1.31238
1365.91;  766.750;   46.750;15308.250; 1.32626
1369.89;  730.750;   50.750;15042.250; 1.34334
1373.87;  682.750;   48.750;14460.250; 1.35662
1377.85;  607.750;   60.750;13607.250; 1.39384
1381.82;  537.750;   48.750;12795.250; 1.41608
1385.80;  473.750;   50.750;12441.250; 1.46675
1389.77;  431.750;   54.750;12376.250; 1.51432
1393.74;  385.750;   63.750;12523.250; 1.58764
1397.70;  349.750;   57.750;12861.250; 1.64195
1401.66;  292.750;   57.750;13177.250; 1.74685
1405.62;  246.750;   34.750;13448.250; 1.80121
1409.58;  241.750;   50.750;13653.250; 1.85259
1413.54;  208.750;   50.750;13787.250; 1.93922
1417.49;  186.750;   27.750;13838.250; 1.93881
1421.44;  194.750;   63.750;13894.250; 2.02357
1425.39;  171.750;   54.750;13879.250; 2.07246
1429.33;  186.750;   64.750;13864.250; 2.05350
1433.27;  160.750;   54.750;13809.250; 2.11314
1437.21;  163.750;   48.750;13776.250; 2.07689
1441.15;  163.750;   52.750;13748.250; 2.09125
1445.09;  149.750;   60.750;13691.250; 2.18512
1449.02;  157.750;   57.750;13611.250; 2.13205
1452.95;  156.750;   52.750;13536.250; 2.11277
1456.87;  147.750;   53.750;13439.250; 2.15351
1460.80;  135.750;   43.750;13345.250; 2.16011
1464.72;  150.750;   59.750;13253.250; 2.16132
1468.64;  148.750;   43.750;13131.250; 2.09567
1472.55;  160.750;   63.750;13051.250; 2.12675
1476.47;  143.750;   43.750;12969.250; 2.11145
1480.38;  159.750;   38.750;12870.250; 2.02549
1484.28;  151.750;   54.750;12750.250; 2.11688
1488.19;  172.750;   50.750;12663.250; 2.01444
1492.09;  160.750;   28.750;12533.250; 1.97649
1495.99;  179.750;   58.750;12434.250; 2.00978
1499.89;  175.750;   46.750;12320.250; 1.97838
1503.78;  183.750;   48.750;12228.250; 1.95530
1507.67;  192.750;   52.750;12113.250; 1.93524
1511.56;  172.750;   33.750;11982.250; 1.93430
1515.44;  203.750;   50.750;11884.250; 1.88842
1519.33;  225.750;   48.750;11757.250; 1.82053
1523.21;  211.750;   35.750;11649.250; 1.81945
1527.08;  226.750;   57.750;11506.250; 1.83086
1530.96;  234.750;   39.750;11368.250; 1.76414
1534.83;  249.750;   52.750;11249.250; 1.75462
1538.70;  248.750;   57.750;11082.250; 1.76133
1542.56;  233.750;   28.750;10958.250; 1.72685
1546.42;  241.750;   39.750;10836.250; 1.72793
1550.28;  257.750;   58.750;10683.250; 1.72746
1554.14;  252.750;   39.750;10510.250; 1.69159
1557.99;  264.750;   41.750;10388.250; 1.66649
1561.84;  262.750;   33.750;10234.250; 1.64879
1565.69;  260.750;   40.750;10095.250; 1.65994
1569.54;  288.750;   24.750; 9939.250; 1.57467
1573.38;  276.750;   40.750; 9804.250; 1.61669
1577.22;  276.750;   31.750; 9649.250; 1.59390
1581.05;  275.750;   49.750; 9522.250; 1.62236
1584.89;  292.750;   45.750; 9369.250; 1.57688
1588.72;  288.750;   41.750; 9215.250; 1.56984
1592.54;  276.750;   35.750; 9061.250; 1.57345
1596.37;  284.750;   22.750; 8908.250; 1.53038
1600.19;  279.750;   43.750; 8774.250; 1.56813
1604.01;  278.750;   33.750; 8610.250; 1.54414
1607.82;  280.750;   31.750; 8473.250; 1.53022
1611.63;  270.750;   22.750; 8316.250; 1.52429
1615.44;  284.750;   26.750; 8167.250; 1.49903
1619.25;  261.750;   34.750; 7998.250; 1.54508
1623.05;  273.750;   13.750; 7822.250; 1.47759
1626.85;  280.750;   26.750; 7668.250; 1.47834
1630.64;  267.750;   42.750; 7511.250; 1.52105
1634.44;  266.750;   26.750; 7307.250; 1.48195
1638.23;  246.750;   18.750; 7114.250; 1.49305
1642.01;  258.750;   39.750; 6938.250; 1.49831
1645.80;  256.750;   42.750; 6743.250; 1.49569
1649.58;  251.750;   38.750; 6531.250; 1.48403
1653.35;  251.750;   44.750; 6309.250; 1.48092
1657.13;  229.750;   36.750; 6064.250; 1.49458
1660.90;  231.750;   34.750; 5808.250; 1.46697
1664.67;  208.750;   28.750; 5491.250; 1.48212
1668.43;  219.750;   24.750; 5119.250; 1.41707
1672.19;  195.750;   35.750; 4656.250; 1.46057
1675.95;  172.750;   31.750; 4113.250; 1.46160
1679.70;  155.750;   46.750; 3563.250; 1.50868
1683.46;  140.750;   23.750; 3047.250; 1.41232
1687.20;  133.750;   39.750; 2617.250; 1.43807
1690.95;  119.750;   36.750; 2243.250; 1.42463
1694.69;  110.750;   56.750; 1964.250; 1.54807
1698.43;  109.750;   22.750; 1699.250; 1.28488
1702.16;   98.750;   44.750; 1533.250; 1.44036
1705.89;  108.750;   30.750; 1372.250; 1.23550
1709.62;   91.750;   25.750; 1277.250; 1.27789
1713.35;   93.750;   17.750; 1187.250; 1.18719
1717.07;   96.750;   42.750; 1123.250; 1.30123
1720.79;   97.750;   41.750; 1064.250; 1.26148
1724.50;  106.750;   44.750; 1019.250; 1.19639
1728.21;   97.750;   29.750;  974.250; 1.14269
1731.92;   86.750;   25.750;  931.250; 1.17156
1735.63;   94.750;   34.750;  925.250; 1.17148
1739.33;   94.750;   23.750;  909.250; 1.09593
1743.02;   99.750;   21.750;  865.250; 1.03399
1746.72;   92.750;   33.750;  872.250; 1.15265
1750.41;  105.750;   37.750;  865.250; 1.08526
1754.10;  107.750;   44.750;  846.250; 1.10456

