
Integration time [ms]:  10.000
Averaging Nr. [scans]: 10
Smoothing Nr. [pixels]: 0
Data measured with spectrometer [name]: 1911294U1
Wave   ;Sample   ;Dark     ;Reference;Absorbance
[nm]   ;[counts] ;[counts] ;[counts] ;[A.U]

 860.61; 1634.500; 1551.700; 1907.800; 0.63354
 864.82; 1584.700; 1505.600; 1955.500; 0.75494
 869.02; 1596.000; 1514.900; 2034.000; 0.80623
 873.23; 1619.200; 1530.300; 2122.800; 0.82379
 877.43; 1573.400; 1494.800; 2149.500; 0.92062
 881.63; 1619.400; 1530.800; 2256.000; 0.91302
 885.83; 1592.700; 1499.600; 2300.600; 0.93468
 890.03; 1595.500; 1501.000; 2363.200; 0.96018
 894.23; 1599.000; 1498.400; 2434.200; 0.96859
 898.42; 1586.300; 1490.200; 2489.500; 1.01697
 902.62; 1627.500; 1522.400; 2605.100; 1.01291
 906.81; 1594.400; 1488.700; 2644.500; 1.03881
 911.00; 1601.700; 1494.400; 2732.000; 1.06198
 915.19; 1613.000; 1503.000; 2840.700; 1.08497
 919.38; 1661.400; 1541.400; 2988.000; 1.08117
 923.57; 1595.500; 1477.600; 3060.100; 1.12783
 927.76; 1646.400; 1511.200; 3297.300; 1.12093
 931.94; 1636.000; 1493.300; 3511.600; 1.15056
 936.13; 1666.200; 1516.000; 3764.700; 1.17526
 940.31; 1640.800; 1484.900; 3931.100; 1.19565
 944.49; 1711.300; 1547.000; 4163.000; 1.20200
 948.67; 1693.400; 1518.900; 4297.000; 1.20195
 952.85; 1667.800; 1493.400; 4427.000; 1.22585
 957.03; 1684.700; 1501.100; 4604.000; 1.22790
 961.21; 1709.700; 1518.200; 4778.500; 1.23109
 965.38; 1702.300; 1507.600; 4921.400; 1.24387
 969.55; 1704.100; 1505.800; 5072.200; 1.25491
 973.73; 1731.000; 1520.500; 5253.800; 1.24884
 977.90; 1727.100; 1511.100; 5413.200; 1.25684
 982.06; 1737.100; 1518.800; 5592.700; 1.27096
 986.23; 1738.800; 1506.000; 5748.000; 1.26059
 990.40; 1754.200; 1519.400; 5941.100; 1.27489
 994.56; 1780.600; 1538.400; 6129.700; 1.27776
 998.72; 1786.400; 1541.900; 6290.500; 1.28829
1002.88; 1763.400; 1510.200; 6415.300; 1.28718
1007.04; 1783.500; 1529.400; 6579.000; 1.29825
1011.20; 1786.400; 1519.900; 6717.500; 1.29011
1015.36; 1815.400; 1543.200; 6867.300; 1.29136
1019.51; 1781.800; 1510.000; 6947.400; 1.30114
1023.67; 1806.000; 1530.900; 7080.200; 1.30475
1027.82; 1797.300; 1512.800; 7172.800; 1.29873
1031.97; 1815.400; 1525.500; 7291.600; 1.29863
1036.12; 1811.700; 1523.900; 7384.200; 1.30883
1040.27; 1812.200; 1520.100; 7490.500; 1.31047
1044.41; 1822.800; 1522.700; 7585.300; 1.30539
1048.56; 1835.400; 1534.900; 7704.000; 1.31238
1052.70; 1826.900; 1519.500; 7789.500; 1.30956
1056.84; 1832.700; 1529.400; 7905.400; 1.32268
1060.98; 1805.000; 1501.100; 7985.000; 1.32911
1065.11; 1834.300; 1513.900; 8119.500; 1.31422
1069.25; 1852.200; 1526.700; 8264.000; 1.31593
1073.38; 1857.000; 1527.800; 8408.100; 1.32015
1077.52; 1879.400; 1546.500; 8548.800; 1.32293
1081.65; 1868.900; 1532.900; 8683.900; 1.32803
1085.77; 1872.900; 1527.000; 8829.600; 1.32453
1089.90; 1885.000; 1533.700; 8986.900; 1.32666
1094.03; 1859.600; 1500.400; 9113.600; 1.32623
1098.15; 1907.900; 1546.400; 9322.700; 1.33266
1102.27; 1855.200; 1489.800; 9441.600; 1.33770
1106.39; 1899.400; 1527.600; 9661.400; 1.33998
1110.51; 1940.700; 1551.400; 9878.200; 1.33019
1114.63; 1890.000; 1500.800;10067.700; 1.34265
1118.74; 1958.500; 1553.000;10360.700; 1.33687
1122.85; 1941.600; 1530.700;10522.800; 1.34012
1126.96; 1922.500; 1503.600;10642.400; 1.33878
1131.07; 1980.700; 1554.700;10786.500; 1.33588
1135.18; 1925.200; 1504.600;10802.100; 1.34450
1139.29; 1941.500; 1516.000;10868.600; 1.34203
1143.39; 1965.300; 1538.200;10912.400; 1.34140
1147.49; 1939.300; 1518.500;10897.900; 1.34810
1151.59; 1942.800; 1515.000;10914.000; 1.34184
1155.69; 1972.800; 1541.600;10966.800; 1.33961
1159.78; 1929.100; 1502.700;10951.200; 1.34555
1163.88; 1969.400; 1536.300;11019.900; 1.34039
1167.97; 1970.900; 1537.000;11049.100; 1.34089
1172.06; 1948.100; 1514.600;11052.300; 1.34245
1176.15; 1943.300; 1511.400;11073.900; 1.34519
1180.23; 1987.200; 1549.600;11155.900; 1.34148
1184.32; 1936.100; 1494.700;11140.100; 1.33949
1188.40; 1952.000; 1514.000;11201.700; 1.34475
1192.48; 1958.600; 1515.300;11260.500; 1.34209
1196.56; 1966.000; 1521.200;11309.800; 1.34256
1200.64; 1984.200; 1534.600;11380.300; 1.34042
1204.71; 1965.400; 1514.200;11415.100; 1.34131
1208.78; 1974.100; 1522.400;11476.100; 1.34313
1212.85; 1998.700; 1547.900;11559.600; 1.34652
1216.92; 1924.900; 1476.200;11533.500; 1.35053
1220.99; 1989.800; 1534.300;11668.800; 1.34731
1225.05; 1987.000; 1527.500;11719.100; 1.34596
1229.11; 1968.200; 1506.200;11777.200; 1.34697
1233.17; 2004.800; 1537.300;11867.500; 1.34433
1237.23; 2003.500; 1535.100;11935.000; 1.34641
1241.29; 1999.900; 1531.200;11992.800; 1.34870
1245.34; 2031.700; 1560.000;12107.000; 1.34946
1249.39; 1970.400; 1500.000;12117.900; 1.35357
1253.44; 1998.600; 1518.900;12212.500; 1.34815
1257.49; 2039.100; 1552.800;12334.500; 1.34578
1261.53; 2005.200; 1518.900;12369.900; 1.34857
1265.58; 2013.500; 1525.900;12452.600; 1.35043
1269.62; 2011.300; 1519.600;12529.800; 1.35009
1273.65; 2017.200; 1519.900;12603.400; 1.34806
1277.69; 2008.700; 1518.000;12681.800; 1.35700
1281.72; 2032.600; 1530.100;12773.400; 1.34976
1285.76; 2033.900; 1529.900;12851.500; 1.35148
1289.79; 2029.200; 1520.800;12909.400; 1.35026
1293.81; 2018.000; 1511.100;12974.600; 1.35439
1297.84; 1998.500; 1490.200;13004.900; 1.35513
1301.86; 2062.500; 1546.100;13137.300; 1.35114
1305.88; 2031.500; 1520.800;13163.800; 1.35790
1309.90; 2058.300; 1541.300;13243.300; 1.35477
1313.92; 2017.500; 1497.800;13236.900; 1.35388
1317.93; 2053.700; 1527.400;13321.700; 1.35044
1321.94; 2042.000; 1516.400;13349.300; 1.35244
1325.95; 2046.500; 1515.800;13392.300; 1.34984
1329.96; 2063.100; 1527.200;13449.200; 1.34727
1333.96; 2056.900; 1523.500;13501.700; 1.35134
1337.96; 2058.900; 1525.700;13575.100; 1.35408
1341.96; 2070.300; 1530.100;13604.900; 1.34933
1345.96; 2044.200; 1514.800;13535.100; 1.35613
1349.95; 2023.200; 1504.900;13357.000; 1.35921
1353.95; 2004.100; 1500.800;13080.300; 1.36186
1357.94; 2014.600; 1519.000;12810.900; 1.35764
1361.92; 2010.600; 1525.200;12577.700; 1.35736
1365.91; 1988.600; 1509.100;12495.800; 1.36008
1369.89; 1976.900; 1500.900;12522.200; 1.36463
1373.87; 1970.700; 1483.400;12502.700; 1.35436
1377.85; 2018.700; 1541.800;12256.400; 1.35155
1381.82; 1946.200; 1495.800;11839.800; 1.36109
1385.80; 1999.400; 1542.900;11856.600; 1.35397
1389.77; 1986.700; 1524.900;11869.500; 1.35026
1393.74; 1964.100; 1509.900;11804.200; 1.35535
1397.70; 2013.200; 1552.300;11918.000; 1.35199
1401.66; 1989.600; 1522.100;11986.800; 1.34995
1405.62; 1972.200; 1502.000;12055.500; 1.35111
1409.58; 2007.900; 1528.700;12203.600; 1.34785
1413.54; 2002.200; 1519.400;12293.200; 1.34860
1417.49; 1956.600; 1476.800;12292.900; 1.35301
1421.44; 2006.900; 1523.100;12384.600; 1.35122
1425.39; 1995.600; 1510.500;12382.800; 1.35049
1429.33; 2017.800; 1525.700;12395.900; 1.34418
1433.27; 2006.300; 1523.700;12370.200; 1.35170
1437.21; 1985.500; 1502.800;12323.500; 1.35058
1441.15; 2029.000; 1543.700;12339.600; 1.34725
1445.09; 2016.800; 1531.000;12292.800; 1.34543
1449.02; 1964.800; 1489.700;12200.500; 1.35304
1452.95; 2017.100; 1529.700;12230.100; 1.34151
1456.87; 2005.900; 1524.100;12175.900; 1.34456
1460.80; 1996.300; 1510.600;12112.200; 1.33900
1464.72; 1975.900; 1502.500;12023.800; 1.34684
1468.64; 1975.300; 1502.300;11961.600; 1.34464
1472.55; 1989.700; 1518.100;11913.700; 1.34328
1476.47; 1999.400; 1531.300;11884.300; 1.34473
1480.38; 1988.100; 1517.300;11801.000; 1.33931
1484.28; 2001.000; 1535.000;11762.600; 1.34139
1488.19; 1983.500; 1522.200;11690.100; 1.34325
1492.09; 1951.900; 1489.900;11596.700; 1.33997
1495.99; 1962.500; 1506.600;11539.600; 1.34256
1499.89; 1970.200; 1513.300;11504.200; 1.33978
1503.78; 1969.600; 1515.200;11427.600; 1.33874
1507.67; 1990.200; 1539.800;11381.400; 1.33947
1511.56; 1946.400; 1498.300;11268.800; 1.33854
1515.44; 1975.200; 1525.700;11237.600; 1.33457
1519.33; 1957.400; 1515.200;11135.600; 1.33757
1523.21; 1965.300; 1523.900;11078.700; 1.33539
1527.08; 1955.600; 1519.400;10990.300; 1.33671
1530.96; 1941.500; 1500.300;10886.000; 1.32783
1534.83; 1976.900; 1544.300;10845.200; 1.33244
1538.70; 1932.300; 1508.600;10715.900; 1.33707
1542.56; 1917.100; 1500.900;10619.900; 1.34065
1546.42; 1940.500; 1517.300;10554.500; 1.32949
1550.28; 1929.400; 1513.400;10453.100; 1.33223
1554.14; 1927.800; 1508.800;10345.500; 1.32408
1557.99; 1937.600; 1525.700;10266.900; 1.32678
1561.84; 1901.100; 1498.400;10122.900; 1.33075
1565.69; 1914.200; 1516.200;10052.800; 1.33140
1569.54; 1903.100; 1503.300; 9933.900; 1.32402
1573.38; 1894.100; 1501.700; 9824.400; 1.32654
1577.22; 1916.800; 1527.000; 9752.100; 1.32430
1581.05; 1897.300; 1512.400; 9625.200; 1.32382
1584.89; 1905.900; 1524.900; 9522.100; 1.32201
1588.72; 1894.700; 1517.700; 9409.100; 1.32081
1592.54; 1874.700; 1506.200; 9274.600; 1.32389
1596.37; 1891.400; 1517.200; 9177.600; 1.31115
1600.19; 1875.800; 1510.100; 9050.400; 1.31426
1604.01; 1843.800; 1486.400; 8899.400; 1.31684
1607.82; 1855.700; 1509.800; 8796.900; 1.32360
1611.63; 1825.400; 1480.100; 8624.900; 1.31579
1615.44; 1896.300; 1553.300; 8575.400; 1.31117
1619.25; 1819.800; 1486.200; 8361.300; 1.31405
1623.05; 1803.900; 1479.000; 8208.600; 1.31624
1626.85; 1840.800; 1513.000; 8103.300; 1.30330
1630.64; 1847.000; 1524.000; 7969.700; 1.30007
1634.44; 1816.100; 1504.600; 7800.200; 1.30558
1638.23; 1813.900; 1503.300; 7652.600; 1.29662
1642.01; 1805.100; 1506.800; 7500.000; 1.30301
1645.80; 1796.300; 1499.800; 7336.400; 1.29414
1649.58; 1793.600; 1507.600; 7165.100; 1.29626
1653.35; 1838.500; 1554.000; 7043.000; 1.28541
1657.13; 1757.600; 1486.500; 6816.300; 1.29358
1660.90; 1763.200; 1500.200; 6658.700; 1.29257
1664.67; 1744.600; 1492.900; 6464.500; 1.29561
1668.43; 1756.200; 1506.200; 6271.300; 1.28013
1672.19; 1767.300; 1522.100; 6011.600; 1.26268
1675.95; 1715.000; 1493.800; 5613.400; 1.27007
1679.70; 1744.700; 1530.900; 5235.900; 1.23878
1683.46; 1693.900; 1497.800; 4742.900; 1.21875
1687.20; 1685.700; 1511.400; 4295.600; 1.20340
1690.95; 1663.500; 1504.400; 3867.300; 1.17178
1694.69; 1657.800; 1514.400; 3526.700; 1.14714
1698.43; 1609.500; 1482.500; 3185.600; 1.12744
1702.16; 1619.500; 1497.600; 2968.200; 1.08149
1705.89; 1614.700; 1499.300; 2779.100; 1.04494
1709.62; 1595.500; 1493.100; 2618.100; 1.04085
1713.35; 1625.200; 1522.600; 2525.400; 0.99007
1717.07; 1586.800; 1492.000; 2393.400; 0.97811
1720.79; 1609.700; 1513.300; 2338.300; 0.93238
1724.50; 1610.700; 1514.000; 2272.300; 0.89441
1728.21; 1585.400; 1499.400; 2201.400; 0.91184
1731.92; 1582.900; 1495.900; 2152.500; 0.87778
1735.63; 1569.800; 1483.800; 2109.800; 0.86208
1739.33; 1610.500; 1525.100; 2113.700; 0.83836
1743.02; 1584.600; 1493.200; 2053.800; 0.78771
1746.72; 1578.100; 1494.300; 2031.700; 0.80705
1750.41; 1587.200; 1502.900; 2014.600; 0.78319
1754.10; 1594.500; 1515.500; 2011.500; 0.79785

