
Integration time [ms]:  10.000
Averaging Nr. [scans]: 10
Smoothing Nr. [pixels]: 0
Data measured with spectrometer [name]: 1911294U1
Wave   ;Sample   ;Dark     ;Reference;Absorbance
[nm]   ;[counts] ;[counts] ;[counts] ;[A.U]

 860.61; 1630.500; 1551.700; 1907.800; 0.65505
 864.82; 1585.600; 1505.600; 1955.500; 0.75003
 869.02; 1595.900; 1514.900; 2034.000; 0.80677
 873.23; 1616.700; 1530.300; 2122.800; 0.83617
 877.43; 1575.300; 1494.800; 2149.500; 0.91025
 881.63; 1618.800; 1530.800; 2256.000; 0.91598
 885.83; 1594.200; 1499.600; 2300.600; 0.92774
 890.03; 1592.500; 1501.000; 2363.200; 0.97419
 894.23; 1598.800; 1498.400; 2434.200; 0.96945
 898.42; 1583.400; 1490.200; 2489.500; 1.03028
 902.62; 1630.100; 1522.400; 2605.100; 1.00229
 906.81; 1593.700; 1488.700; 2644.500; 1.04169
 911.00; 1604.100; 1494.400; 2732.000; 1.05237
 915.19; 1616.200; 1503.000; 2840.700; 1.07251
 919.38; 1662.100; 1541.400; 2988.000; 1.07864
 923.57; 1595.500; 1477.600; 3060.100; 1.12783
 927.76; 1644.200; 1511.200; 3297.300; 1.12805
 931.94; 1632.300; 1493.300; 3511.600; 1.16197
 936.13; 1666.100; 1516.000; 3764.700; 1.17555
 940.31; 1635.300; 1484.900; 3931.100; 1.21124
 944.49; 1711.800; 1547.000; 4163.000; 1.20068
 948.67; 1692.200; 1518.900; 4297.000; 1.20495
 952.85; 1669.100; 1493.400; 4427.000; 1.22263
 957.03; 1685.200; 1501.100; 4604.000; 1.22671
 961.21; 1706.400; 1518.200; 4778.500; 1.23864
 965.38; 1701.200; 1507.600; 4921.400; 1.24633
 969.55; 1704.700; 1505.800; 5072.200; 1.25360
 973.73; 1730.300; 1520.500; 5253.800; 1.25029
 977.90; 1723.900; 1511.100; 5413.200; 1.26333
 982.06; 1740.200; 1518.800; 5592.700; 1.26483
 986.23; 1735.000; 1506.000; 5748.000; 1.26774
 990.40; 1756.000; 1519.400; 5941.100; 1.27157
 994.56; 1787.200; 1538.400; 6129.700; 1.26609
 998.72; 1791.900; 1541.900; 6290.500; 1.27863
1002.88; 1764.100; 1510.200; 6415.300; 1.28599
1007.04; 1788.900; 1529.400; 6579.000; 1.28912
1011.20; 1784.200; 1519.900; 6717.500; 1.29371
1015.36; 1818.600; 1543.200; 6867.300; 1.28628
1019.51; 1785.200; 1510.000; 6947.400; 1.29574
1023.67; 1801.200; 1530.900; 7080.200; 1.31239
1027.82; 1796.600; 1512.800; 7172.800; 1.29980
1031.97; 1816.500; 1525.500; 7291.600; 1.29699
1036.12; 1812.700; 1523.900; 7384.200; 1.30732
1040.27; 1811.500; 1520.100; 7490.500; 1.31151
1044.41; 1819.000; 1522.700; 7585.300; 1.31093
1048.56; 1838.200; 1534.900; 7704.000; 1.30835
1052.70; 1826.800; 1519.500; 7789.500; 1.30970
1056.84; 1839.500; 1529.400; 7905.400; 1.31305
1060.98; 1806.700; 1501.100; 7985.000; 1.32668
1065.11; 1832.300; 1513.900; 8119.500; 1.31694
1069.25; 1850.500; 1526.700; 8264.000; 1.31821
1073.38; 1858.100; 1527.800; 8408.100; 1.31870
1077.52; 1881.500; 1546.500; 8548.800; 1.32020
1081.65; 1874.500; 1532.900; 8683.900; 1.32085
1085.77; 1875.400; 1527.000; 8829.600; 1.32140
1089.90; 1883.300; 1533.700; 8986.900; 1.32877
1094.03; 1859.300; 1500.400; 9113.600; 1.32659
1098.15; 1914.500; 1546.400; 9322.700; 1.32481
1102.27; 1859.700; 1489.800; 9441.600; 1.33238
1106.39; 1903.100; 1527.600; 9661.400; 1.33568
1110.51; 1937.100; 1551.400; 9878.200; 1.33423
1114.63; 1899.800; 1500.800;10067.700; 1.33185
1118.74; 1963.600; 1553.000;10360.700; 1.33144
1122.85; 1940.500; 1530.700;10522.800; 1.34129
1126.96; 1919.900; 1503.600;10642.400; 1.34148
1131.07; 1981.500; 1554.700;10786.500; 1.33506
1135.18; 1926.500; 1504.600;10802.100; 1.34316
1139.29; 1944.100; 1516.000;10868.600; 1.33939
1143.39; 1971.100; 1538.200;10912.400; 1.33555
1147.49; 1939.500; 1518.500;10897.900; 1.34789
1151.59; 1941.100; 1515.000;10914.000; 1.34357
1155.69; 1971.700; 1541.600;10966.800; 1.34072
1159.78; 1933.800; 1502.700;10951.200; 1.34078
1163.88; 1973.600; 1536.300;11019.900; 1.33619
1167.97; 1977.200; 1537.000;11049.100; 1.33463
1172.06; 1948.600; 1514.600;11052.300; 1.34195
1176.15; 1948.900; 1511.400;11073.900; 1.33959
1180.23; 1994.800; 1549.600;11155.900; 1.33400
1184.32; 1938.400; 1494.700;11140.100; 1.33723
1188.40; 1956.300; 1514.000;11201.700; 1.34050
1192.48; 1964.200; 1515.300;11260.500; 1.33664
1196.56; 1967.600; 1521.200;11309.800; 1.34100
1200.64; 1991.800; 1534.600;11380.300; 1.33314
1204.71; 1965.100; 1514.200;11415.100; 1.34159
1208.78; 1979.300; 1522.400;11476.100; 1.33816
1212.85; 2004.400; 1547.900;11559.600; 1.34107
1216.92; 1926.300; 1476.200;11533.500; 1.34917
1220.99; 1998.500; 1534.300;11668.800; 1.33910
1225.05; 1991.200; 1527.500;11719.100; 1.34201
1229.11; 1966.800; 1506.200;11777.200; 1.34829
1233.17; 2005.400; 1537.300;11867.500; 1.34377
1237.23; 2010.200; 1535.100;11935.000; 1.34024
1241.29; 2001.600; 1531.200;11992.800; 1.34713
1245.34; 2033.600; 1560.000;12107.000; 1.34772
1249.39; 1975.500; 1500.000;12117.900; 1.34889
1253.44; 2000.100; 1518.900;12212.500; 1.34680
1257.49; 2039.300; 1552.800;12334.500; 1.34560
1261.53; 2008.000; 1518.900;12369.900; 1.34607
1265.58; 2015.700; 1525.900;12452.600; 1.34847
1269.62; 2014.200; 1519.600;12529.800; 1.34754
1273.65; 2024.800; 1519.900;12603.400; 1.34147
1277.69; 2015.200; 1518.000;12681.800; 1.35128
1281.72; 2034.400; 1530.100;12773.400; 1.34820
1285.76; 2038.800; 1529.900;12851.500; 1.34728
1289.79; 2038.300; 1520.800;12909.400; 1.34256
1293.81; 2021.900; 1511.100;12974.600; 1.35107
1297.84; 2004.700; 1490.200;13004.900; 1.34987
1301.86; 2068.200; 1546.100;13137.300; 1.34637
1305.88; 2039.400; 1520.800;13163.800; 1.35123
1309.90; 2060.800; 1541.300;13243.300; 1.35267
1313.92; 2019.000; 1497.800;13236.900; 1.35263
1317.93; 2053.700; 1527.400;13321.700; 1.35044
1321.94; 2043.900; 1516.400;13349.300; 1.35087
1325.95; 2043.600; 1515.800;13392.300; 1.35222
1329.96; 2066.400; 1527.200;13449.200; 1.34460
1333.96; 2062.200; 1523.500;13501.700; 1.34704
1337.96; 2065.300; 1525.700;13575.100; 1.34889
1341.96; 2075.300; 1530.100;13604.900; 1.34532
1345.96; 2048.300; 1514.800;13535.100; 1.35278
1349.95; 2028.300; 1504.900;13357.000; 1.35496
1353.95; 2011.800; 1500.800;13080.300; 1.35527
1357.94; 2014.700; 1519.000;12810.900; 1.35755
1361.92; 2011.000; 1525.200;12577.700; 1.35700
1365.91; 1992.700; 1509.100;12495.800; 1.35638
1369.89; 1978.400; 1500.900;12522.200; 1.36326
1373.87; 1970.800; 1483.400;12502.700; 1.35427
1377.85; 2019.300; 1541.800;12256.400; 1.35100
1381.82; 1952.700; 1495.800;11839.800; 1.35487
1385.80; 2007.900; 1542.900;11856.600; 1.34596
1389.77; 1987.300; 1524.900;11869.500; 1.34970
1393.74; 1967.100; 1509.900;11804.200; 1.35249
1397.70; 2012.300; 1552.300;11918.000; 1.35284
1401.66; 1990.000; 1522.100;11986.800; 1.34957
1405.62; 1970.500; 1502.000;12055.500; 1.35269
1409.58; 2008.500; 1528.700;12203.600; 1.34730
1413.54; 2002.400; 1519.400;12293.200; 1.34842
1417.49; 1959.900; 1476.800;12292.900; 1.35003
1421.44; 2009.300; 1523.100;12384.600; 1.34907
1425.39; 1997.500; 1510.500;12382.800; 1.34879
1429.33; 2012.900; 1525.700;12395.900; 1.34853
1433.27; 2006.900; 1523.700;12370.200; 1.35116
1437.21; 1987.800; 1502.800;12323.500; 1.34851
1441.15; 2034.500; 1543.700;12339.600; 1.34235
1445.09; 2013.800; 1531.000;12292.800; 1.34812
1449.02; 1969.100; 1489.700;12200.500; 1.34912
1452.95; 2018.100; 1529.700;12230.100; 1.34062
1456.87; 2009.500; 1524.100;12175.900; 1.34132
1460.80; 1992.800; 1510.600;12112.200; 1.34214
1464.72; 1975.200; 1502.500;12023.800; 1.34748
1468.64; 1974.900; 1502.300;11961.600; 1.34501
1472.55; 1988.900; 1518.100;11913.700; 1.34401
1476.47; 1998.400; 1531.300;11884.300; 1.34566
1480.38; 1992.200; 1517.300;11801.000; 1.33555
1484.28; 2003.400; 1535.000;11762.600; 1.33916
1488.19; 1982.100; 1522.200;11690.100; 1.34457
1492.09; 1949.400; 1489.900;11596.700; 1.34233
1495.99; 1965.400; 1506.600;11539.600; 1.33981
1499.89; 1973.600; 1513.300;11504.200; 1.33656
1503.78; 1970.000; 1515.200;11427.600; 1.33836
1507.67; 1992.600; 1539.800;11381.400; 1.33716
1511.56; 1943.900; 1498.300;11268.800; 1.34097
1515.44; 1976.000; 1525.700;11237.600; 1.33380
1519.33; 1960.600; 1515.200;11135.600; 1.33444
1523.21; 1964.100; 1523.900;11078.700; 1.33657
1527.08; 1955.400; 1519.400;10990.300; 1.33690
1530.96; 1939.100; 1500.300;10886.000; 1.33020
1534.83; 1977.500; 1544.300;10845.200; 1.33184
1538.70; 1941.000; 1508.600;10715.900; 1.32825
1542.56; 1917.500; 1500.900;10619.900; 1.34023
1546.42; 1940.900; 1517.300;10554.500; 1.32908
1550.28; 1933.900; 1513.400;10453.100; 1.32756
1554.14; 1924.200; 1508.800;10345.500; 1.32782
1557.99; 1935.900; 1525.700;10266.900; 1.32858
1561.84; 1898.400; 1498.400;10122.900; 1.33367
1565.69; 1916.500; 1516.200;10052.800; 1.32890
1569.54; 1906.100; 1503.300; 9933.900; 1.32077
1573.38; 1892.300; 1501.700; 9824.400; 1.32853
1577.22; 1915.600; 1527.000; 9752.100; 1.32564
1581.05; 1897.600; 1512.400; 9625.200; 1.32348
1584.89; 1907.500; 1524.900; 9522.100; 1.32019
1588.72; 1896.600; 1517.700; 9409.100; 1.31863
1592.54; 1872.200; 1506.200; 9274.600; 1.32685
1596.37; 1890.900; 1517.200; 9177.600; 1.31173
1600.19; 1875.200; 1510.100; 9050.400; 1.31498
1604.01; 1845.400; 1486.400; 8899.400; 1.31490
1607.82; 1855.600; 1509.800; 8796.900; 1.32373
1611.63; 1828.000; 1480.100; 8624.900; 1.31254
1615.44; 1898.300; 1553.300; 8575.400; 1.30865
1619.25; 1818.200; 1486.200; 8361.300; 1.31614
1623.05; 1803.200; 1479.000; 8208.600; 1.31718
1626.85; 1837.000; 1513.000; 8103.300; 1.30836
1630.64; 1844.400; 1524.000; 7969.700; 1.30358
1634.44; 1814.700; 1504.600; 7800.200; 1.30754
1638.23; 1811.900; 1503.300; 7652.600; 1.29943
1642.01; 1802.200; 1506.800; 7500.000; 1.30725
1645.80; 1797.300; 1499.800; 7336.400; 1.29267
1649.58; 1795.900; 1507.600; 7165.100; 1.29278
1653.35; 1834.800; 1554.000; 7043.000; 1.29110
1657.13; 1756.900; 1486.500; 6816.300; 1.29470
1660.90; 1767.700; 1500.200; 6658.700; 1.28520
1664.67; 1746.500; 1492.900; 6464.500; 1.29235
1668.43; 1756.200; 1506.200; 6271.300; 1.28013
1672.19; 1766.000; 1522.100; 6011.600; 1.26499
1675.95; 1720.200; 1493.800; 5613.400; 1.25998
1679.70; 1747.600; 1530.900; 5235.900; 1.23293
1683.46; 1691.000; 1497.800; 4742.900; 1.22522
1687.20; 1684.000; 1511.400; 4295.600; 1.20766
1690.95; 1660.700; 1504.400; 3867.300; 1.17949
1694.69; 1657.400; 1514.400; 3526.700; 1.14836
1698.43; 1609.700; 1482.500; 3185.600; 1.12675
1702.16; 1612.000; 1497.600; 2968.200; 1.10907
1705.89; 1611.600; 1499.300; 2779.100; 1.05676
1709.62; 1596.100; 1493.100; 2618.100; 1.03832
1713.35; 1622.200; 1522.600; 2525.400; 1.00295
1717.07; 1586.900; 1492.000; 2393.400; 0.97765
1720.79; 1611.900; 1513.300; 2338.300; 0.92258
1724.50; 1604.800; 1514.000; 2272.300; 0.92176
1728.21; 1588.200; 1499.400; 2201.400; 0.89792
1731.92; 1575.000; 1495.900; 2152.500; 0.91912
1735.63; 1566.800; 1483.800; 2109.800; 0.87750
1739.33; 1608.400; 1525.100; 2113.700; 0.84918
1743.02; 1580.600; 1493.200; 2053.800; 0.80714
1746.72; 1575.900; 1494.300; 2031.700; 0.81861
1750.41; 1586.100; 1502.900; 2014.600; 0.78889
1754.10; 1596.100; 1515.500; 2011.500; 0.78915

