
Integration time [ms]:   3.780
Averaging Nr. [scans]: 1
Smoothing Nr. [pixels]: 0
Data measured with spectrometer [name]: 1911294U1
Wave   ;Sample   ;Dark     ;Reference;Absorbance
[nm]   ;[counts] ;[counts] ;[counts] ;[A.U]

 860.61;  118.000;   67.750;  833.250; 1.18281
 864.82;  112.000;   49.750;  998.250; 1.18290
 869.02;  127.000;   59.750; 1169.250; 1.21744
 873.23;  128.000;   54.750; 1288.250; 1.22633
 877.43;  140.000;   53.750; 1415.250; 1.19826
 881.63;  161.000;   54.750; 1540.250; 1.14554
 885.83;  160.000;   49.750; 1684.250; 1.17101
 890.03;  154.000;   28.750; 1796.250; 1.14958
 894.23;  164.000;   40.750; 1929.250; 1.18533
 898.42;  174.000;   37.750; 2071.250; 1.17391
 902.62;  189.000;   56.750; 2213.250; 1.21235
 906.81;  204.000;   35.750; 2337.250; 1.13606
 911.00;  215.000;   53.750; 2523.250; 1.18511
 915.19;  230.000;   45.750; 2712.250; 1.16053
 919.38;  253.000;   47.750; 2963.250; 1.15243
 923.57;  277.000;   53.750; 3292.250; 1.16155
 927.76;  298.000;   40.750; 3728.250; 1.15638
 931.94;  330.000;   39.750; 4163.250; 1.15249
 936.13;  373.000;   53.750; 4579.250; 1.15154
 940.31;  369.000;   50.750; 4873.250; 1.18050
 944.49;  391.000;   63.750; 5167.250; 1.19299
 948.67;  411.000;   49.750; 5411.250; 1.17148
 952.85;  407.000;   50.750; 5679.250; 1.19864
 957.03;  435.000;   47.750; 5965.250; 1.18415
 961.21;  455.000;   58.750; 6236.250; 1.19284
 965.38;  450.000;   44.750; 6471.250; 1.20025
 969.55;  464.000;   37.750; 6719.250; 1.19521
 973.73;  502.000;   56.750; 6971.250; 1.19116
 977.90;  516.000;   42.750; 7222.250; 1.18100
 982.06;  526.000;   44.750; 7469.250; 1.18830
 986.23;  533.000;   51.750; 7739.250; 1.20341
 990.40;  582.000;   61.750; 7985.250; 1.18270
 994.56;  579.000;   65.750; 8243.250; 1.20229
 998.72;  592.000;   58.750; 8450.250; 1.19691
1002.88;  605.000;   57.750; 8670.250; 1.19694
1007.04;  615.000;   52.750; 8879.250; 1.19586
1011.20;  625.000;   49.750; 9068.250; 1.19528
1015.36;  638.000;   45.750; 9257.250; 1.19183
1019.51;  656.000;   60.750; 9402.250; 1.19572
1023.67;  679.000;   69.750; 9574.250; 1.19313
1027.82;  676.000;   61.750; 9729.250; 1.19697
1031.97;  687.000;   55.750; 9851.250; 1.19083
1036.12;  693.000;   49.750;10022.250; 1.19042
1040.27;  722.000;   61.750;10174.250; 1.18515
1044.41;  722.000;   73.750;10320.250; 1.19883
1048.56;  716.000;   53.750;10468.250; 1.19662
1052.70;  744.000;   58.750;10629.250; 1.18825
1056.84;  753.000;   47.750;10798.250; 1.18309
1060.98;  755.000;   67.750;10996.250; 1.20145
1065.11;  765.000;   63.750;11181.250; 1.20013
1069.25;  798.000;   63.750;11391.250; 1.18829
1073.38;  798.000;   56.750;11632.250; 1.19358
1077.52;  831.000;   70.750;11862.250; 1.19061
1081.65;  834.000;   62.750;12105.250; 1.19352
1085.77;  849.000;   60.750;12352.250; 1.19294
1089.90;  865.000;   56.750;12603.250; 1.19098
1094.03;  875.000;   65.750;12857.250; 1.19884
1098.15;  904.000;   68.750;13146.250; 1.19471
1102.27;  901.000;   66.750;13436.250; 1.20482
1106.39;  931.000;   69.750;13733.250; 1.20043
1110.51;  943.000;   69.750;14055.250; 1.20454
1114.63;  954.000;   49.750;14464.250; 1.20251
1118.74;  986.000;   73.750;14874.250; 1.21016
1122.85; 1003.000;   70.750;15167.250; 1.20934
1126.96; 1006.000;   61.750;15350.250; 1.20928
1131.07; 1006.000;   57.750;15457.250; 1.21058
1135.18;  993.000;   63.750;15545.250; 1.22168
1139.29;  957.000;   45.750;15604.250; 1.23233
1143.39;  946.000;   62.750;15613.250; 1.24566
1147.49;  931.000;   71.750;15592.250; 1.25679
1151.59;  907.000;   71.750;15618.250; 1.26982
1155.69;  893.000;   64.750;15618.250; 1.27367
1159.78;  859.000;   61.750;15619.250; 1.29035
1163.88;  889.000;   66.750;15654.250; 1.27777
1167.97;  850.000;   60.750;15657.250; 1.29581
1172.06;  856.000;   60.750;15668.250; 1.29283
1176.15;  859.000;   53.750;15670.250; 1.28765
1180.23;  854.000;   59.750;15679.250; 1.29371
1184.32;  833.000;   50.750;15690.250; 1.30088
1188.40;  837.000;   57.750;15712.250; 1.30296
1192.48;  832.000;   55.750;15725.250; 1.30505
1196.56;  840.000;   53.750;15754.250; 1.30035
1200.64;  855.000;   72.750;15783.250; 1.30284
1204.71;  835.000;   50.750;15806.250; 1.30298
1208.78;  869.000;   69.750;15849.250; 1.29541
1212.85;  856.000;   54.750;15854.250; 1.29488
1216.92;  832.000;   37.750;15840.250; 1.29877
1220.99;  856.000;   49.750;15897.250; 1.29349
1225.05;  866.000;   60.750;15920.250; 1.29436
1229.11;  851.000;   53.750;15924.250; 1.29900
1233.17;  880.000;   58.750;15926.250; 1.28603
1237.23;  882.000;   49.750;15943.250; 1.28097
1241.29;  866.000;   51.750;15960.250; 1.29087
1245.34;  887.000;   79.750;16029.250; 1.29574
1249.39;  880.000;   55.750;16081.250; 1.28875
1253.44;  882.000;   36.750;16122.250; 1.27945
1257.49;  899.000;   73.750;16225.250; 1.29163
1261.53;  891.000;   40.750;16273.250; 1.28084
1265.58;  902.000;   46.750;16338.250; 1.27987
1269.62;  896.000;   46.750;16412.250; 1.28489
1273.65;  893.000;   55.750;16472.250; 1.29243
1277.69;  914.000;   53.750;16552.250; 1.28282
1281.72;  922.000;   65.750;16612.250; 1.28611
1285.76;  905.000;   66.750;16662.250; 1.29662
1289.79;  898.000;   56.750;16697.250; 1.29624
1293.81;  891.000;   44.750;16713.250; 1.29440
1297.84;  877.000;   49.750;16765.250; 1.30548
1301.86;  899.000;   43.750;16807.250; 1.29227
1305.88;  875.000;   58.750;16824.250; 1.31259
1309.90;  869.000;   49.750;16842.250; 1.31170
1313.92;  870.000;   55.750;16828.250; 1.31384
1317.93;  859.000;   65.750;16838.250; 1.32519
1321.94;  824.000;   46.750;16825.250; 1.33419
1325.95;  812.000;   64.750;16797.250; 1.35009
1329.96;  801.000;   63.750;16802.250; 1.35610
1333.96;  763.000;   52.750;16773.250; 1.37184
1337.96;  746.000;   63.750;16776.250; 1.38910
1341.96;  740.000;   46.750;16748.250; 1.38187
1345.96;  712.000;   59.750;16622.250; 1.40471
1349.95;  691.000;   42.750;16410.250; 1.40224
1353.95;  660.000;   67.750;16154.250; 1.43396
1357.94;  631.000;   50.750;15843.250; 1.43484
1361.92;  610.000;   50.750;15571.250; 1.44330
1365.91;  576.000;   46.750;15308.250; 1.45994
1369.89;  550.000;   50.750;15042.250; 1.47753
1373.87;  512.000;   48.750;14460.250; 1.49289
1377.85;  452.000;   60.750;13607.250; 1.53937
1381.82;  393.000;   48.750;12795.250; 1.56852
1385.80;  344.000;   50.750;12441.250; 1.62585
1389.77;  309.000;   54.750;12376.250; 1.68540
1393.74;  256.000;   63.750;12523.250; 1.81163
1397.70;  240.000;   57.750;12861.250; 1.84666
1401.66;  177.000;   57.750;13177.250; 2.04146
1405.62;  172.000;   34.750;13448.250; 1.99003
1409.58;  145.000;   50.750;13653.250; 2.15934
1413.54;  122.000;   50.750;13787.250; 2.28509
1417.49;  110.000;   27.750;13838.250; 2.22507
1421.44;  119.000;   63.750;13894.250; 2.39851
1425.39;  122.000;   54.750;13879.250; 2.31296
1429.33;  129.000;   64.750;13864.250; 2.33199
1433.27;   99.000;   54.750;13809.250; 2.49253
1437.21;   97.000;   48.750;13776.250; 2.45409
1441.15;  104.000;   52.750;13748.250; 2.42688
1445.09;  107.000;   60.750;13691.250; 2.46940
1449.02;   97.000;   57.750;13611.250; 2.53821
1452.95;  100.000;   52.750;13536.250; 2.45540
1456.87;   93.000;   53.750;13439.250; 2.53279
1460.80;  102.000;   43.750;13345.250; 2.35860
1464.72;  104.000;   59.750;13253.250; 2.47445
1468.64;   87.000;   43.750;13131.250; 2.48087
1472.55;  112.000;   63.750;13051.250; 2.43003
1476.47;  101.000;   43.750;12969.250; 2.35367
1480.38;   97.000;   38.750;12870.250; 2.34298
1484.28;  104.000;   54.750;12750.250; 2.41124
1488.19;   96.000;   50.750;12663.250; 2.44518
1492.09;  104.000;   28.750;12533.250; 2.22056
1495.99;  121.000;   58.750;12434.250; 2.29842
1499.89;  111.000;   46.750;12320.250; 2.28110
1503.78;  122.000;   48.750;12228.250; 2.22082
1507.67;  134.000;   52.750;12113.250; 2.17154
1511.56;  116.000;   33.750;11982.250; 2.16218
1515.44;  123.000;   50.750;11884.250; 2.21428
1519.33;  144.000;   48.750;11757.250; 2.08964
1523.21;  143.000;   35.750;11649.250; 2.03457
1527.08;  157.000;   57.750;11506.250; 2.06202
1530.96;  152.000;   39.750;11368.250; 2.00399
1534.83;  176.000;   52.750;11249.250; 1.95830
1538.70;  172.000;   57.750;11082.250; 1.98450
1542.56;  154.000;   28.750;10958.250; 1.94082
1546.42;  171.000;   39.750;10836.250; 1.91518
1550.28;  184.000;   58.750;10683.250; 1.92853
1554.14;  158.000;   39.750;10510.250; 1.94717
1557.99;  190.000;   41.750;10388.250; 1.84380
1561.84;  189.000;   33.750;10234.250; 1.81759
1565.69;  186.000;   40.750;10095.250; 1.84024
1569.54;  176.000;   24.750; 9939.250; 1.81658
1573.38;  189.000;   40.750; 9804.250; 1.81861
1577.22;  197.000;   31.750; 9649.250; 1.76492
1581.05;  189.000;   49.750; 9522.250; 1.83267
1584.89;  207.000;   45.750; 9369.250; 1.76208
1588.72;  202.000;   41.750; 9215.250; 1.75774
1592.54;  191.000;   35.750; 9061.250; 1.76444
1596.37;  199.000;   22.750; 8908.250; 1.70255
1600.19;  197.000;   43.750; 8774.250; 1.75564
1604.01;  198.000;   33.750; 8610.250; 1.71780
1607.82;  195.000;   31.750; 8473.250; 1.71357
1611.63;  202.000;   22.750; 8316.250; 1.66528
1615.44;  200.000;   26.750; 8167.250; 1.67198
1619.25;  191.000;   34.750; 7998.250; 1.70728
1623.05;  181.000;   13.750; 7822.250; 1.66920
1626.85;  190.000;   26.750; 7668.250; 1.67033
1630.64;  195.000;   42.750; 7511.250; 1.69068
1634.44;  192.000;   26.750; 7307.250; 1.64402
1638.23;  184.000;   18.750; 7114.250; 1.63284
1642.01;  185.000;   39.750; 6938.250; 1.67664
1645.80;  177.000;   42.750; 6743.250; 1.69819
1649.58;  188.000;   38.750; 6531.250; 1.63850
1653.35;  186.000;   44.750; 6309.250; 1.64690
1657.13;  168.000;   36.750; 6064.250; 1.66204
1660.90;  159.000;   34.750; 5808.250; 1.66714
1664.67;  157.000;   28.750; 5491.250; 1.62933
1668.43;  170.000;   24.750; 5119.250; 1.54499
1672.19;  143.000;   35.750; 4656.250; 1.63429
1675.95;  126.000;   31.750; 4113.250; 1.63654
1679.70;  128.000;   46.750; 3563.250; 1.63629
1683.46;  107.000;   23.750; 3047.250; 1.56013
1687.20;  117.000;   39.750; 2617.250; 1.52330
1690.95;   96.000;   36.750; 2243.250; 1.57102
1694.69;   91.000;   56.750; 1964.250; 1.74580
1698.43;   82.000;   22.750; 1699.250; 1.45172
1702.16;  100.000;   44.750; 1533.250; 1.43042
1705.89;   91.000;   30.750; 1372.250; 1.34763
1709.62;   66.000;   25.750; 1277.250; 1.49266
1713.35;   80.000;   17.750; 1187.250; 1.27386
1717.07;   81.000;   42.750; 1123.250; 1.45099
1720.79;   82.000;   41.750; 1064.250; 1.40490
1724.50;   90.000;   44.750; 1019.250; 1.33316
1728.21;   85.000;   29.750;  974.250; 1.23287
1731.92;   76.000;   25.750;  931.250; 1.25575
1735.63;   79.000;   34.750;  925.250; 1.30372
1739.33;   85.000;   23.750;  909.250; 1.16008
1743.02;   75.000;   21.750;  865.250; 1.19977
1746.72;   87.000;   33.750;  872.250; 1.19718
1750.41;   90.000;   37.750;  865.250; 1.19968
1754.10;   80.000;   44.750;  846.250; 1.35674

