
Integration time [ms]:   3.780
Averaging Nr. [scans]: 1
Smoothing Nr. [pixels]: 0
Data measured with spectrometer [name]: 1911294U1
Wave   ;Sample   ;Dark     ;Reference;Absorbance
[nm]   ;[counts] ;[counts] ;[counts] ;[A.U]

 860.61;  137.750;   67.750;  833.250; 1.03885
 864.82;  148.750;   49.750;  998.250; 0.98140
 869.02;  176.750;   59.750; 1169.250; 0.97694
 873.23;  177.750;   54.750; 1288.250; 1.00123
 877.43;  185.750;   53.750; 1415.250; 1.01344
 881.63;  198.750;   54.750; 1540.250; 1.01351
 885.83;  205.750;   49.750; 1684.250; 1.02026
 890.03;  205.750;   28.750; 1796.250; 0.99939
 894.23;  216.750;   40.750; 1929.250; 1.03060
 898.42;  234.750;   37.750; 2071.250; 1.01378
 902.62;  250.750;   56.750; 2213.250; 1.04595
 906.81;  274.750;   35.750; 2337.250; 0.98361
 911.00;  274.750;   53.750; 2523.250; 1.04822
 915.19;  303.750;   45.750; 2712.250; 1.01432
 919.38;  332.750;   47.750; 2963.250; 1.00987
 923.57;  354.750;   53.750; 3292.250; 1.03178
 927.76;  388.750;   40.750; 3728.250; 1.02515
 931.94;  434.750;   39.750; 4163.250; 1.01867
 936.13;  455.750;   53.750; 4579.250; 1.05144
 940.31;  489.750;   50.750; 4873.250; 1.04081
 944.49;  522.750;   63.750; 5167.250; 1.04606
 948.67;  531.750;   49.750; 5411.250; 1.04624
 952.85;  538.750;   50.750; 5679.250; 1.06197
 957.03;  569.750;   47.750; 5965.250; 1.05447
 961.21;  598.750;   58.750; 6236.250; 1.05842
 965.38;  610.750;   44.750; 6471.250; 1.05516
 969.55;  615.750;   37.750; 6719.250; 1.06295
 973.73;  648.750;   56.750; 6971.250; 1.06744
 977.90;  662.750;   42.750; 7222.250; 1.06370
 982.06;  694.750;   44.750; 7469.250; 1.05775
 986.23;  700.750;   51.750; 7739.250; 1.07354
 990.40;  741.750;   61.750; 7985.250; 1.06641
 994.56;  753.750;   65.750; 8243.250; 1.07503
 998.72;  772.750;   58.750; 8450.250; 1.07014
1002.88;  794.750;   57.750; 8670.250; 1.06766
1007.04;  815.750;   52.750; 8879.250; 1.06326
1011.20;  832.750;   49.750; 9068.250; 1.06137
1015.36;  846.750;   45.750; 9257.250; 1.06070
1019.51;  853.750;   60.750; 9402.250; 1.07114
1023.67;  876.750;   69.750; 9574.250; 1.07106
1027.82;  887.750;   61.750; 9729.250; 1.06833
1031.97;  903.750;   55.750; 9851.250; 1.06263
1036.12;  902.750;   49.750;10022.250; 1.06786
1040.27;  918.750;   61.750;10174.250; 1.07188
1044.41;  957.750;   73.750;10320.250; 1.06412
1048.56;  969.750;   53.750;10468.250; 1.05574
1052.70;  967.750;   58.750;10629.250; 1.06553
1056.84;  994.750;   47.750;10798.250; 1.05508
1060.98; 1000.750;   67.750;10996.250; 1.06868
1065.11; 1028.750;   63.750;11181.250; 1.06148
1069.25; 1038.750;   63.750;11391.250; 1.06513
1073.38; 1055.750;   56.750;11632.250; 1.06397
1077.52; 1082.750;   70.750;11862.250; 1.06639
1081.65; 1089.750;   62.750;12105.250; 1.06915
1085.77; 1101.750;   60.750;12352.250; 1.07215
1089.90; 1134.750;   56.750;12603.250; 1.06590
1094.03; 1149.750;   65.750;12857.250; 1.07189
1098.15; 1176.750;   68.750;13146.250; 1.07198
1102.27; 1182.750;   66.750;13436.250; 1.07845
1106.39; 1214.750;   69.750;13733.250; 1.07676
1110.51; 1252.750;   69.750;14055.250; 1.07269
1114.63; 1270.750;   49.750;14464.250; 1.07208
1118.74; 1311.750;   73.750;14874.250; 1.07756
1122.85; 1316.750;   70.750;15167.250; 1.08336
1126.96; 1324.750;   61.750;15350.250; 1.08296
1131.07; 1335.750;   57.750;15457.250; 1.08098
1135.18; 1304.750;   63.750;15545.250; 1.09604
1139.29; 1277.750;   45.750;15604.250; 1.10136
1143.39; 1263.750;   62.750;15613.250; 1.11220
1147.49; 1241.750;   71.750;15592.250; 1.12272
1151.59; 1223.750;   71.750;15618.250; 1.13018
1155.69; 1197.750;   64.750;15618.250; 1.13760
1159.78; 1202.750;   61.750;15619.250; 1.13465
1163.88; 1193.750;   66.750;15654.250; 1.14085
1167.97; 1176.750;   60.750;15657.250; 1.14536
1172.06; 1169.750;   60.750;15668.250; 1.14840
1176.15; 1180.750;   53.750;15670.250; 1.14166
1180.23; 1174.750;   59.750;15679.250; 1.14639
1184.32; 1158.750;   50.750;15690.250; 1.14968
1188.40; 1159.750;   57.750;15712.250; 1.15246
1192.48; 1170.750;   55.750;15725.250; 1.14778
1196.56; 1165.750;   53.750;15754.250; 1.14981
1200.64; 1190.750;   72.750;15783.250; 1.14775
1204.71; 1170.750;   50.750;15806.250; 1.14821
1208.78; 1183.750;   69.750;15849.250; 1.15121
1212.85; 1178.750;   54.750;15854.250; 1.14788
1216.92; 1164.750;   37.750;15840.250; 1.14680
1220.99; 1194.750;   49.750;15897.250; 1.14116
1225.05; 1198.750;   60.750;15920.250; 1.14415
1229.11; 1195.750;   53.750;15924.250; 1.14292
1233.17; 1202.750;   58.750;15926.250; 1.14208
1237.23; 1203.750;   49.750;15943.250; 1.13901
1241.29; 1204.750;   51.750;15960.250; 1.13980
1245.34; 1228.750;   79.750;16029.250; 1.14243
1249.39; 1221.750;   55.750;16081.250; 1.13811
1253.44; 1216.750;   36.750;16122.250; 1.13455
1257.49; 1239.750;   73.750;16225.250; 1.14151
1261.53; 1241.750;   40.750;16273.250; 1.13084
1265.58; 1259.750;   46.750;16338.250; 1.12810
1269.62; 1244.750;   46.750;16412.250; 1.13547
1273.65; 1237.750;   55.750;16472.250; 1.14266
1277.69; 1257.750;   53.750;16552.250; 1.13682
1281.72; 1262.750;   65.750;16612.250; 1.14061
1285.76; 1261.750;   66.750;16662.250; 1.14262
1289.79; 1243.750;   56.750;16697.250; 1.14672
1293.81; 1242.750;   44.750;16713.250; 1.14344
1297.84; 1252.750;   49.750;16765.250; 1.14285
1301.86; 1238.750;   43.750;16807.250; 1.14700
1305.88; 1212.750;   58.750;16824.250; 1.16221
1309.90; 1219.750;   49.750;16842.250; 1.15693
1313.92; 1198.750;   55.750;16828.250; 1.16655
1317.93; 1197.750;   65.750;16838.250; 1.17075
1321.94; 1162.750;   46.750;16825.250; 1.17709
1325.95; 1147.750;   64.750;16797.250; 1.18893
1329.96; 1137.750;   63.750;16802.250; 1.19271
1333.96; 1088.750;   52.750;16773.250; 1.20789
1337.96; 1072.750;   63.750;16776.250; 1.21915
1341.96; 1034.750;   46.750;16748.250; 1.22800
1345.96; 1021.750;   59.750;16622.250; 1.23595
1349.95;  986.750;   42.750;16410.250; 1.23901
1353.95;  945.750;   67.750;16154.250; 1.26297
1357.94;  913.750;   50.750;15843.250; 1.26244
1361.92;  882.750;   50.750;15571.250; 1.27078
1365.91;  856.750;   46.750;15308.250; 1.27511
1369.89;  800.750;   50.750;15042.250; 1.30078
1373.87;  734.750;   48.750;14460.250; 1.32239
1377.85;  668.750;   60.750;13607.250; 1.34792
1381.82;  578.750;   48.750;12795.250; 1.38112
1385.80;  503.750;   50.750;12441.250; 1.43699
1389.77;  435.750;   54.750;12376.250; 1.50974
1393.74;  380.750;   63.750;12523.250; 1.59444
1397.70;  333.750;   57.750;12861.250; 1.66642
1401.66;  282.750;   57.750;13177.250; 1.76573
1405.62;  227.750;   34.750;13448.250; 1.84198
1409.58;  219.750;   50.750;13653.250; 1.90573
1413.54;  199.750;   50.750;13787.250; 1.96469
1417.49;  150.750;   27.750;13838.250; 2.05030
1421.44;  176.750;   63.750;13894.250; 2.08776
1425.39;  153.750;   54.750;13879.250; 2.14501
1429.33;  165.750;   64.750;13864.250; 2.13554
1433.27;  155.750;   54.750;13809.250; 2.13412
1437.21;  144.750;   48.750;13776.250; 2.15532
1441.15;  149.750;   52.750;13748.250; 2.14981
1445.09;  134.750;   60.750;13691.250; 2.26528
1449.02;  126.750;   57.750;13611.250; 2.29320
1452.95;  143.750;   52.750;13536.250; 2.17076
1456.87;  131.750;   53.750;13439.250; 2.23454
1460.80;  126.750;   43.750;13345.250; 2.20482
1464.72;  138.750;   59.750;13253.250; 2.22273
1468.64;  144.750;   43.750;13131.250; 2.11254
1472.55;  139.750;   63.750;13051.250; 2.23271
1476.47;  149.750;   43.750;12969.250; 2.08614
1480.38;  156.750;   38.750;12870.250; 2.03640
1484.28;  148.750;   54.750;12750.250; 2.13052
1488.19;  155.750;   50.750;12663.250; 2.07961
1492.09;  157.750;   28.750;12533.250; 1.98648
1495.99;  168.750;   58.750;12434.250; 2.05117
1499.89;  183.750;   46.750;12320.250; 1.95225
1503.78;  187.750;   48.750;12228.250; 1.94261
1507.67;  205.750;   52.750;12113.250; 1.89667
1511.56;  188.750;   33.750;11982.250; 1.88698
1515.44;  201.750;   50.750;11884.250; 1.89414
1519.33;  217.750;   48.750;11757.250; 1.84061
1523.21;  223.750;   35.750;11649.250; 1.79081
1527.08;  238.750;   57.750;11506.250; 1.80107
1530.96;  235.750;   39.750;11368.250; 1.76192
1534.83;  260.750;   52.750;11249.250; 1.73102
1538.70;  252.750;   57.750;11082.250; 1.75232
1542.56;  243.750;   28.750;10958.250; 1.70616
1546.42;  270.750;   39.750;10836.250; 1.66967
1550.28;  279.750;   58.750;10683.250; 1.68192
1554.14;  269.750;   39.750;10510.250; 1.65824
1557.99;  295.750;   41.750;10388.250; 1.60996
1561.84;  285.750;   33.750;10234.250; 1.60722
1565.69;  286.750;   40.750;10095.250; 1.61143
1569.54;  297.750;   24.750; 9939.250; 1.56011
1573.38;  296.750;   40.750; 9804.250; 1.58137
1577.22;  303.750;   31.750; 9649.250; 1.54849
1581.05;  302.750;   49.750; 9522.250; 1.57334
1584.89;  318.750;   45.750; 9369.250; 1.53342
1588.72;  316.750;   41.750; 9215.250; 1.52320
1592.54;  311.750;   35.750; 9061.250; 1.51456
1596.37;  309.750;   22.750; 8908.250; 1.49080
1600.19;  328.750;   43.750; 8774.250; 1.48619
1604.01;  322.750;   33.750; 8610.250; 1.47241
1607.82;  325.750;   31.750; 8473.250; 1.45807
1611.63;  305.750;   22.750; 8316.250; 1.46695
1615.44;  328.750;   26.750; 8167.250; 1.43064
1619.25;  325.750;   34.750; 7998.250; 1.43721
1623.05;  300.750;   13.750; 7822.250; 1.43469
1626.85;  310.750;   26.750; 7668.250; 1.42986
1630.64;  308.750;   42.750; 7511.250; 1.44835
1634.44;  309.750;   26.750; 7307.250; 1.41037
1638.23;  280.750;   18.750; 7114.250; 1.43268
1642.01;  295.750;   39.750; 6938.250; 1.43051
1645.80;  304.750;   42.750; 6743.250; 1.40781
1649.58;  281.750;   38.750; 6531.250; 1.42681
1653.35;  284.750;   44.750; 6309.250; 1.41668
1657.13;  275.750;   36.750; 6064.250; 1.40174
1660.90;  271.750;   34.750; 5808.250; 1.38669
1664.67;  249.750;   28.750; 5491.250; 1.39300
1668.43;  248.750;   24.750; 5119.250; 1.35685
1672.19;  229.750;   35.750; 4656.250; 1.37689
1675.95;  215.750;   31.750; 4113.250; 1.34600
1679.70;  193.750;   46.750; 3563.250; 1.37879
1683.46;  174.750;   23.750; 3047.250; 1.30153
1687.20;  171.750;   39.750; 2617.250; 1.29062
1690.95;  154.750;   36.750; 2243.250; 1.27182
1694.69;  139.750;   56.750; 1964.250; 1.36139
1698.43;  116.750;   22.750; 1699.250; 1.25128
1702.16;  134.750;   44.750; 1533.250; 1.21851
1705.89;  115.750;   30.750; 1372.250; 1.19817
1709.62;  120.750;   25.750; 1277.250; 1.11971
1713.35;  115.750;   17.750; 1187.250; 1.07677
1717.07;  103.750;   42.750; 1123.250; 1.24829
1720.79;  108.750;   41.750; 1064.250; 1.18359
1724.50;  121.750;   44.750; 1019.250; 1.10229
1728.21;  115.750;   29.750;  974.250; 1.04070
1731.92;  107.750;   25.750;  931.250; 1.04307
1735.63;  101.750;   34.750;  925.250; 1.12356
1739.33;  113.750;   23.750;  909.250; 0.99295
1743.02;  108.750;   21.750;  865.250; 0.98657
1746.72;  111.750;   33.750;  872.250; 1.03141
1750.41;  121.750;   37.750;  865.250; 0.99349
1754.10;  100.750;   44.750;  846.250; 1.15572

