
Integration time [ms]:  10.000
Averaging Nr. [scans]: 10
Smoothing Nr. [pixels]: 0
Data measured with spectrometer [name]: 1911294U1
Wave   ;Sample   ;Dark     ;Reference;Absorbance
[nm]   ;[counts] ;[counts] ;[counts] ;[A.U]

 860.61; 1623.100; 1551.700; 1907.800; 0.69787
 864.82; 1581.600; 1505.600; 1955.500; 0.77230
 869.02; 1593.800; 1514.900; 2034.000; 0.81817
 873.23; 1617.400; 1530.300; 2122.800; 0.83267
 877.43; 1570.500; 1494.800; 2149.500; 0.93695
 881.63; 1619.200; 1530.800; 2256.000; 0.91401
 885.83; 1587.300; 1499.600; 2300.600; 0.96063
 890.03; 1592.700; 1501.000; 2363.200; 0.97324
 894.23; 1593.700; 1498.400; 2434.200; 0.99209
 898.42; 1582.200; 1490.200; 2489.500; 1.03591
 902.62; 1624.300; 1522.400; 2605.100; 1.02633
 906.81; 1586.900; 1488.700; 2644.500; 1.07077
 911.00; 1601.700; 1494.400; 2732.000; 1.06198
 915.19; 1613.200; 1503.000; 2840.700; 1.08418
 919.38; 1653.300; 1541.400; 2988.000; 1.11152
 923.57; 1593.600; 1477.600; 3060.100; 1.13489
 927.76; 1637.400; 1511.200; 3297.300; 1.15085
 931.94; 1626.100; 1493.300; 3511.600; 1.18179
 936.13; 1662.800; 1516.000; 3764.700; 1.18521
 940.31; 1637.400; 1484.900; 3931.100; 1.20522
 944.49; 1713.400; 1547.000; 4163.000; 1.19648
 948.67; 1692.700; 1518.900; 4297.000; 1.20370
 952.85; 1667.400; 1493.400; 4427.000; 1.22685
 957.03; 1682.300; 1501.100; 4604.000; 1.23361
 961.21; 1704.200; 1518.200; 4778.500; 1.24374
 965.38; 1706.100; 1507.600; 4921.400; 1.23548
 969.55; 1703.700; 1505.800; 5072.200; 1.25578
 973.73; 1729.400; 1520.500; 5253.800; 1.25215
 977.90; 1722.100; 1511.100; 5413.200; 1.26702
 982.06; 1734.400; 1518.800; 5592.700; 1.27636
 986.23; 1733.300; 1506.000; 5748.000; 1.27097
 990.40; 1754.900; 1519.400; 5941.100; 1.27360
 994.56; 1783.600; 1538.400; 6129.700; 1.27242
 998.72; 1787.400; 1541.900; 6290.500; 1.28651
1002.88; 1759.900; 1510.200; 6415.300; 1.29323
1007.04; 1781.300; 1529.400; 6579.000; 1.30203
1011.20; 1783.000; 1519.900; 6717.500; 1.29568
1015.36; 1812.900; 1543.200; 6867.300; 1.29537
1019.51; 1780.800; 1510.000; 6947.400; 1.30274
1023.67; 1802.200; 1530.900; 7080.200; 1.31079
1027.82; 1796.600; 1512.800; 7172.800; 1.29980
1031.97; 1808.400; 1525.500; 7291.600; 1.30925
1036.12; 1811.700; 1523.900; 7384.200; 1.30883
1040.27; 1810.100; 1520.100; 7490.500; 1.31361
1044.41; 1819.000; 1522.700; 7585.300; 1.31093
1048.56; 1837.900; 1534.900; 7704.000; 1.30878
1052.70; 1820.100; 1519.500; 7789.500; 1.31928
1056.84; 1835.700; 1529.400; 7905.400; 1.31840
1060.98; 1805.600; 1501.100; 7985.000; 1.32825
1065.11; 1828.000; 1513.900; 8119.500; 1.32284
1069.25; 1850.800; 1526.700; 8264.000; 1.31781
1073.38; 1858.300; 1527.800; 8408.100; 1.31844
1077.52; 1881.100; 1546.500; 8548.800; 1.32071
1081.65; 1866.000; 1532.900; 8683.900; 1.33179
1085.77; 1869.200; 1527.000; 8829.600; 1.32920
1089.90; 1882.900; 1533.700; 8986.900; 1.32927
1094.03; 1858.200; 1500.400; 9113.600; 1.32793
1098.15; 1905.700; 1546.400; 9322.700; 1.33532
1102.27; 1855.600; 1489.800; 9441.600; 1.33722
1106.39; 1900.200; 1527.600; 9661.400; 1.33905
1110.51; 1935.900; 1551.400; 9878.200; 1.33558
1114.63; 1893.000; 1500.800;10067.700; 1.33932
1118.74; 1958.100; 1553.000;10360.700; 1.33730
1122.85; 1932.600; 1530.700;10522.800; 1.34974
1126.96; 1916.300; 1503.600;10642.400; 1.34525
1131.07; 1977.300; 1554.700;10786.500; 1.33936
1135.18; 1918.400; 1504.600;10802.100; 1.35158
1139.29; 1941.200; 1516.000;10868.600; 1.34234
1143.39; 1963.200; 1538.200;10912.400; 1.34355
1147.49; 1942.700; 1518.500;10897.900; 1.34460
1151.59; 1940.300; 1515.000;10914.000; 1.34439
1155.69; 1973.700; 1541.600;10966.800; 1.33871
1159.78; 1928.100; 1502.700;10951.200; 1.34657
1163.88; 1964.300; 1536.300;11019.900; 1.34553
1167.97; 1967.300; 1537.000;11049.100; 1.34451
1172.06; 1942.600; 1514.600;11052.300; 1.34800
1176.15; 1943.700; 1511.400;11073.900; 1.34479
1180.23; 1990.600; 1549.600;11155.900; 1.33812
1184.32; 1934.400; 1494.700;11140.100; 1.34116
1188.40; 1949.300; 1514.000;11201.700; 1.34743
1192.48; 1959.700; 1515.300;11260.500; 1.34102
1196.56; 1966.600; 1521.200;11309.800; 1.34197
1200.64; 1984.200; 1534.600;11380.300; 1.34042
1204.71; 1963.600; 1514.200;11415.100; 1.34304
1208.78; 1974.700; 1522.400;11476.100; 1.34256
1212.85; 2002.500; 1547.900;11559.600; 1.34288
1216.92; 1923.900; 1476.200;11533.500; 1.35149
1220.99; 1988.400; 1534.300;11668.800; 1.34865
1225.05; 1987.200; 1527.500;11719.100; 1.34577
1229.11; 1966.100; 1506.200;11777.200; 1.34895
1233.17; 2004.300; 1537.300;11867.500; 1.34479
1237.23; 2005.500; 1535.100;11935.000; 1.34456
1241.29; 1997.100; 1531.200;11992.800; 1.35131
1245.34; 2034.100; 1560.000;12107.000; 1.34726
1249.39; 1976.600; 1500.000;12117.900; 1.34788
1253.44; 1995.400; 1518.900;12212.500; 1.35106
1257.49; 2038.000; 1552.800;12334.500; 1.34677
1261.53; 2005.900; 1518.900;12369.900; 1.34794
1265.58; 2011.000; 1525.900;12452.600; 1.35266
1269.62; 2012.500; 1519.600;12529.800; 1.34904
1273.65; 2020.400; 1519.900;12603.400; 1.34527
1277.69; 2007.000; 1518.000;12681.800; 1.35850
1281.72; 2035.700; 1530.100;12773.400; 1.34709
1285.76; 2034.600; 1529.900;12851.500; 1.35087
1289.79; 2028.100; 1520.800;12909.400; 1.35121
1293.81; 2022.900; 1511.100;12974.600; 1.35022
1297.84; 1999.500; 1490.200;13004.900; 1.35428
1301.86; 2060.700; 1546.100;13137.300; 1.35266
1305.88; 2033.500; 1520.800;13163.800; 1.35620
1309.90; 2058.700; 1541.300;13243.300; 1.35443
1313.92; 2017.700; 1497.800;13236.900; 1.35371
1317.93; 2046.200; 1527.400;13321.700; 1.35667
1321.94; 2040.100; 1516.400;13349.300; 1.35401
1325.95; 2042.100; 1515.800;13392.300; 1.35346
1329.96; 2061.400; 1527.200;13449.200; 1.34865
1333.96; 2060.000; 1523.500;13501.700; 1.34882
1337.96; 2061.700; 1525.700;13575.100; 1.35180
1341.96; 2071.300; 1530.100;13604.900; 1.34852
1345.96; 2043.300; 1514.800;13535.100; 1.35687
1349.95; 2024.900; 1504.900;13357.000; 1.35779
1353.95; 2008.600; 1500.800;13080.300; 1.35800
1357.94; 2015.500; 1519.000;12810.900; 1.35685
1361.92; 2010.900; 1525.200;12577.700; 1.35709
1365.91; 1989.200; 1509.100;12495.800; 1.35954
1369.89; 1981.600; 1500.900;12522.200; 1.36036
1373.87; 1962.800; 1483.400;12502.700; 1.36146
1377.85; 2013.700; 1541.800;12256.400; 1.35613
1381.82; 1949.200; 1495.800;11839.800; 1.35821
1385.80; 2003.900; 1542.900;11856.600; 1.34971
1389.77; 1983.000; 1524.900;11869.500; 1.35375
1393.74; 1962.200; 1509.900;11804.200; 1.35717
1397.70; 2013.600; 1552.300;11918.000; 1.35162
1401.66; 1986.800; 1522.100;11986.800; 1.35255
1405.62; 1965.700; 1502.000;12055.500; 1.35716
1409.58; 2004.600; 1528.700;12203.600; 1.35085
1413.54; 1999.400; 1519.400;12293.200; 1.35113
1417.49; 1956.600; 1476.800;12292.900; 1.35301
1421.44; 2008.700; 1523.100;12384.600; 1.34961
1425.39; 1994.800; 1510.500;12382.800; 1.35121
1429.33; 2015.500; 1525.700;12395.900; 1.34622
1433.27; 2008.900; 1523.700;12370.200; 1.34937
1437.21; 1983.600; 1502.800;12323.500; 1.35229
1441.15; 2031.900; 1543.700;12339.600; 1.34466
1445.09; 2014.000; 1531.000;12292.800; 1.34794
1449.02; 1964.800; 1489.700;12200.500; 1.35304
1452.95; 2014.800; 1529.700;12230.100; 1.34357
1456.87; 2011.100; 1524.100;12175.900; 1.33989
1460.80; 1995.300; 1510.600;12112.200; 1.33990
1464.72; 1974.100; 1502.500;12023.800; 1.34850
1468.64; 1976.800; 1502.300;11961.600; 1.34327
1472.55; 1990.500; 1518.100;11913.700; 1.34254
1476.47; 2001.500; 1531.300;11884.300; 1.34278
1480.38; 1990.400; 1517.300;11801.000; 1.33720
1484.28; 1999.900; 1535.000;11762.600; 1.34241
1488.19; 1984.000; 1522.200;11690.100; 1.34278
1492.09; 1946.900; 1489.900;11596.700; 1.34470
1495.99; 1965.600; 1506.600;11539.600; 1.33962
1499.89; 1969.600; 1513.300;11504.200; 1.34035
1503.78; 1968.700; 1515.200;11427.600; 1.33960
1507.67; 1993.700; 1539.800;11381.400; 1.33611
1511.56; 1948.400; 1498.300;11268.800; 1.33661
1515.44; 1968.700; 1525.700;11237.600; 1.34090
1519.33; 1955.200; 1515.200;11135.600; 1.33974
1523.21; 1963.600; 1523.900;11078.700; 1.33707
1527.08; 1952.400; 1519.400;10990.300; 1.33990
1530.96; 1938.300; 1500.300;10886.000; 1.33099
1534.83; 1971.600; 1544.300;10845.200; 1.33779
1538.70; 1932.900; 1508.600;10715.900; 1.33646
1542.56; 1920.100; 1500.900;10619.900; 1.33753
1546.42; 1933.500; 1517.300;10554.500; 1.33673
1550.28; 1928.100; 1513.400;10453.100; 1.33359
1554.14; 1921.500; 1508.800;10345.500; 1.33066
1557.99; 1929.800; 1525.700;10266.900; 1.33508
1561.84; 1895.400; 1498.400;10122.900; 1.33694
1565.69; 1910.600; 1516.200;10052.800; 1.33535
1569.54; 1898.400; 1503.300; 9933.900; 1.32915
1573.38; 1893.300; 1501.700; 9824.400; 1.32742
1577.22; 1914.900; 1527.000; 9752.100; 1.32642
1581.05; 1894.500; 1512.400; 9625.200; 1.32699
1584.89; 1904.800; 1524.900; 9522.100; 1.32327
1588.72; 1893.400; 1517.700; 9409.100; 1.32231
1592.54; 1870.100; 1506.200; 9274.600; 1.32935
1596.37; 1890.000; 1517.200; 9177.600; 1.31278
1600.19; 1868.400; 1510.100; 9050.400; 1.32314
1604.01; 1841.900; 1486.400; 8899.400; 1.31915
1607.82; 1850.000; 1509.800; 8796.900; 1.33082
1611.63; 1822.100; 1480.100; 8624.900; 1.31996
1615.44; 1894.500; 1553.300; 8575.400; 1.31346
1619.25; 1817.000; 1486.200; 8361.300; 1.31771
1623.05; 1803.100; 1479.000; 8208.600; 1.31731
1626.85; 1833.200; 1513.000; 8103.300; 1.31348
1630.64; 1843.900; 1524.000; 7969.700; 1.30426
1634.44; 1818.200; 1504.600; 7800.200; 1.30266
1638.23; 1808.200; 1503.300; 7652.600; 1.30467
1642.01; 1806.700; 1506.800; 7500.000; 1.30068
1645.80; 1793.500; 1499.800; 7336.400; 1.29826
1649.58; 1791.300; 1507.600; 7165.100; 1.29977
1653.35; 1834.400; 1554.000; 7043.000; 1.29172
1657.13; 1754.100; 1486.500; 6816.300; 1.29922
1660.90; 1764.900; 1500.200; 6658.700; 1.28977
1664.67; 1739.100; 1492.900; 6464.500; 1.30521
1668.43; 1755.300; 1506.200; 6271.300; 1.28170
1672.19; 1766.900; 1522.100; 6011.600; 1.26339
1675.95; 1718.600; 1493.800; 5613.400; 1.26306
1679.70; 1744.000; 1530.900; 5235.900; 1.24020
1683.46; 1686.000; 1497.800; 4742.900; 1.23661
1687.20; 1679.800; 1511.400; 4295.600; 1.21836
1690.95; 1658.200; 1504.400; 3867.300; 1.18649
1694.69; 1653.700; 1514.400; 3526.700; 1.15974
1698.43; 1607.400; 1482.500; 3185.600; 1.13468
1702.16; 1615.200; 1497.600; 2968.200; 1.09709
1705.89; 1612.000; 1499.300; 2779.100; 1.05522
1709.62; 1593.700; 1493.100; 2618.100; 1.04855
1713.35; 1624.500; 1522.600; 2525.400; 0.99304
1717.07; 1582.700; 1492.000; 2393.400; 0.99731
1720.79; 1604.800; 1513.300; 2338.300; 0.95503
1724.50; 1608.200; 1514.000; 2272.300; 0.90579
1728.21; 1583.500; 1499.400; 2201.400; 0.92154
1731.92; 1577.500; 1495.900; 2152.500; 0.90561
1735.63; 1570.500; 1483.800; 2109.800; 0.85856
1739.33; 1606.400; 1525.100; 2113.700; 0.85973
1743.02; 1579.800; 1493.200; 2053.800; 0.81114
1746.72; 1574.100; 1494.300; 2031.700; 0.82829
1750.41; 1585.000; 1502.900; 2014.600; 0.79467
1754.10; 1595.800; 1515.500; 2011.500; 0.79077

