
Integration time [ms]:  10.000
Averaging Nr. [scans]: 10
Smoothing Nr. [pixels]: 0
Data measured with spectrometer [name]: 1911294U1
Wave   ;Sample   ;Dark     ;Reference;Absorbance
[nm]   ;[counts] ;[counts] ;[counts] ;[A.U]

 860.61; 1616.600; 1551.700; 1907.800; 0.73933
 864.82; 1571.000; 1505.600; 1955.500; 0.83754
 869.02; 1584.400; 1514.900; 2034.000; 0.87327
 873.23; 1600.600; 1530.300; 2122.800; 0.92573
 877.43; 1559.400; 1494.800; 2149.500; 1.00581
 881.63; 1604.600; 1530.800; 2256.000; 0.99240
 885.83; 1579.700; 1499.600; 2300.600; 1.00000
 890.03; 1584.100; 1501.000; 2363.200; 1.01601
 894.23; 1586.500; 1498.400; 2434.200; 1.02621
 898.42; 1570.000; 1490.200; 2489.500; 1.09769
 902.62; 1614.400; 1522.400; 2605.100; 1.07072
 906.81; 1581.800; 1488.700; 2644.500; 1.09393
 911.00; 1588.700; 1494.400; 2732.000; 1.11807
 915.19; 1602.700; 1503.000; 2840.700; 1.12766
 919.38; 1645.600; 1541.400; 2988.000; 1.14248
 923.57; 1585.200; 1477.600; 3060.100; 1.16753
 927.76; 1628.600; 1511.200; 3297.300; 1.18224
 931.94; 1621.300; 1493.300; 3511.600; 1.19778
 936.13; 1652.300; 1516.000; 3764.700; 1.21744
 940.31; 1627.600; 1484.900; 3931.100; 1.23407
 944.49; 1696.600; 1547.000; 4163.000; 1.24271
 948.67; 1676.600; 1518.900; 4297.000; 1.24592
 952.85; 1654.200; 1493.400; 4427.000; 1.26111
 957.03; 1669.600; 1501.100; 4604.000; 1.26517
 961.21; 1687.800; 1518.200; 4778.500; 1.28383
 965.38; 1688.400; 1507.600; 4921.400; 1.27604
 969.55; 1689.400; 1505.800; 5072.200; 1.28836
 973.73; 1712.800; 1520.500; 5253.800; 1.28811
 977.90; 1709.900; 1511.100; 5413.200; 1.29288
 982.06; 1719.300; 1518.800; 5592.700; 1.30790
 986.23; 1716.300; 1506.000; 5748.000; 1.30473
 990.40; 1738.700; 1519.400; 5941.100; 1.30455
 994.56; 1763.100; 1538.400; 6129.700; 1.31033
 998.72; 1770.300; 1541.900; 6290.500; 1.31787
1002.88; 1745.500; 1510.200; 6415.300; 1.31903
1007.04; 1767.900; 1529.400; 6579.000; 1.32577
1011.20; 1767.800; 1519.900; 6717.500; 1.32153
1015.36; 1796.500; 1543.200; 6867.300; 1.32261
1019.51; 1765.100; 1510.000; 6947.400; 1.32868
1023.67; 1782.300; 1530.900; 7080.200; 1.34387
1027.82; 1780.100; 1512.800; 7172.800; 1.32582
1031.97; 1792.200; 1525.500; 7291.600; 1.33486
1036.12; 1793.700; 1523.900; 7384.200; 1.33688
1040.27; 1791.500; 1520.100; 7490.500; 1.34239
1044.41; 1801.800; 1522.700; 7585.300; 1.33690
1048.56; 1819.800; 1534.900; 7704.000; 1.33553
1052.70; 1804.200; 1519.500; 7789.500; 1.34288
1056.84; 1815.600; 1529.400; 7905.400; 1.34788
1060.98; 1789.200; 1501.100; 7985.000; 1.35229
1065.11; 1813.800; 1513.900; 8119.500; 1.34294
1069.25; 1830.500; 1526.700; 8264.000; 1.34590
1073.38; 1840.300; 1527.800; 8408.100; 1.34276
1077.52; 1861.300; 1546.500; 8548.800; 1.34721
1081.65; 1853.000; 1532.900; 8683.900; 1.34908
1085.77; 1856.400; 1527.000; 8829.600; 1.34575
1089.90; 1868.000; 1533.700; 8986.900; 1.34821
1094.03; 1839.600; 1500.400; 9113.600; 1.35111
1098.15; 1889.800; 1546.400; 9322.700; 1.35497
1102.27; 1835.700; 1489.800; 9441.600; 1.36151
1106.39; 1885.800; 1527.600; 9661.400; 1.35617
1110.51; 1916.200; 1551.400; 9878.200; 1.35842
1114.63; 1872.100; 1500.800;10067.700; 1.36310
1118.74; 1942.600; 1553.000;10360.700; 1.35424
1122.85; 1920.500; 1530.700;10522.800; 1.36302
1126.96; 1899.400; 1503.600;10642.400; 1.36341
1131.07; 1958.200; 1554.700;10786.500; 1.35944
1135.18; 1899.800; 1504.600;10802.100; 1.37155
1139.29; 1919.100; 1516.000;10868.600; 1.36552
1143.39; 1946.300; 1538.200;10912.400; 1.36117
1147.49; 1924.600; 1518.500;10897.900; 1.36354
1151.59; 1916.800; 1515.000;10914.000; 1.36907
1155.69; 1950.600; 1541.600;10966.800; 1.36257
1159.78; 1908.900; 1502.700;10951.200; 1.36662
1163.88; 1947.300; 1536.300;11019.900; 1.36313
1167.97; 1949.500; 1537.000;11049.100; 1.36285
1172.06; 1928.300; 1514.600;11052.300; 1.36276
1176.15; 1919.500; 1511.400;11073.900; 1.36980
1180.23; 1966.500; 1549.600;11155.900; 1.36252
1184.32; 1912.000; 1494.700;11140.100; 1.36387
1188.40; 1933.000; 1514.000;11201.700; 1.36401
1192.48; 1934.700; 1515.300;11260.500; 1.36616
1196.56; 1940.600; 1521.200;11309.800; 1.36809
1200.64; 1963.200; 1534.600;11380.300; 1.36119
1204.71; 1940.200; 1514.200;11415.100; 1.36627
1208.78; 1953.200; 1522.400;11476.100; 1.36371
1212.85; 1978.700; 1547.900;11559.600; 1.36623
1216.92; 1902.500; 1476.200;11533.500; 1.37277
1220.99; 1967.800; 1534.300;11668.800; 1.36881
1225.05; 1967.100; 1527.500;11719.100; 1.36518
1229.11; 1945.100; 1506.200;11777.200; 1.36925
1233.17; 1986.100; 1537.300;11867.500; 1.36206
1237.23; 1980.800; 1535.100;11935.000; 1.36799
1241.29; 1978.300; 1531.200;11992.800; 1.36919
1245.34; 2011.700; 1560.000;12107.000; 1.36828
1249.39; 1945.700; 1500.000;12117.900; 1.37700
1253.44; 1970.700; 1518.900;12212.500; 1.37418
1257.49; 2012.300; 1552.800;12334.500; 1.37040
1261.53; 1977.600; 1518.900;12369.900; 1.37394
1265.58; 1989.600; 1525.900;12452.600; 1.37225
1269.62; 1986.200; 1519.600;12529.800; 1.37285
1273.65; 1991.100; 1519.900;12603.400; 1.37147
1277.69; 1987.900; 1518.000;12681.800; 1.37581
1281.72; 2008.600; 1530.100;12773.400; 1.37101
1285.76; 2007.800; 1529.900;12851.500; 1.37457
1289.79; 2003.800; 1520.800;12909.400; 1.37252
1293.81; 1995.900; 1511.100;12974.600; 1.37375
1297.84; 1970.000; 1490.200;13004.900; 1.38019
1301.86; 2036.700; 1546.100;13137.300; 1.37340
1305.88; 2005.500; 1520.800;13163.800; 1.38059
1309.90; 2037.400; 1541.300;13243.300; 1.37269
1313.92; 1990.600; 1497.800;13236.900; 1.37696
1317.93; 2021.800; 1527.400;13321.700; 1.37759
1321.94; 2014.500; 1516.400;13349.300; 1.37577
1325.95; 2016.700; 1515.800;13392.300; 1.37494
1329.96; 2035.800; 1527.200;13449.200; 1.36997
1333.96; 2035.400; 1523.500;13501.700; 1.36921
1337.96; 2034.700; 1525.700;13575.100; 1.37425
1341.96; 2044.600; 1530.100;13604.900; 1.37049
1345.96; 2020.400; 1514.800;13535.100; 1.37611
1349.95; 2002.900; 1504.900;13357.000; 1.37657
1353.95; 1989.100; 1500.800;13080.300; 1.37500
1357.94; 1988.500; 1519.000;12810.900; 1.38113
1361.92; 1984.500; 1525.200;12577.700; 1.38136
1365.91; 1961.100; 1509.100;12495.800; 1.38573
1369.89; 1958.000; 1500.900;12522.200; 1.38222
1373.87; 1944.300; 1483.400;12502.700; 1.37855
1377.85; 1990.900; 1541.800;12256.400; 1.37763
1381.82; 1925.300; 1495.800;11839.800; 1.38173
1385.80; 1977.400; 1542.900;11856.600; 1.37542
1389.77; 1962.900; 1524.900;11869.500; 1.37324
1393.74; 1941.400; 1509.900;11804.200; 1.37762
1397.70; 1990.400; 1552.300;11918.000; 1.37403
1401.66; 1969.100; 1522.100;11986.800; 1.36942
1405.62; 1948.500; 1502.000;12055.500; 1.37358
1409.58; 1979.700; 1528.700;12203.600; 1.37419
1413.54; 1975.500; 1519.400;12293.200; 1.37331
1417.49; 1932.600; 1476.800;12292.900; 1.37530
1421.44; 1986.700; 1523.100;12384.600; 1.36975
1425.39; 1971.000; 1510.500;12382.800; 1.37309
1429.33; 1991.800; 1525.700;12395.900; 1.36776
1433.27; 1988.600; 1523.700;12370.200; 1.36793
1437.21; 1963.000; 1502.800;12323.500; 1.37131
1441.15; 2006.100; 1543.700;12339.600; 1.36824
1445.09; 1990.900; 1531.000;12292.800; 1.36922
1449.02; 1941.600; 1489.700;12200.500; 1.37478
1452.95; 1991.000; 1529.700;12230.100; 1.36542
1456.87; 1983.900; 1524.100;12175.900; 1.36485
1460.80; 1973.400; 1510.600;12112.200; 1.35998
1464.72; 1955.600; 1502.500;12023.800; 1.36588
1468.64; 1950.900; 1502.300;11961.600; 1.36764
1472.55; 1967.900; 1518.100;11913.700; 1.36383
1476.47; 1979.000; 1531.300;11884.300; 1.36408
1480.38; 1966.500; 1517.300;11801.000; 1.35971
1484.28; 1973.800; 1535.000;11762.600; 1.36751
1488.19; 1961.800; 1522.200;11690.100; 1.36417
1492.09; 1931.500; 1489.900;11596.700; 1.35958
1495.99; 1944.900; 1506.600;11539.600; 1.35966
1499.89; 1950.200; 1513.300;11504.200; 1.35922
1503.78; 1945.100; 1515.200;11427.600; 1.36281
1507.67; 1970.800; 1539.800;11381.400; 1.35859
1511.56; 1926.500; 1498.300;11268.800; 1.35827
1515.44; 1954.600; 1525.700;11237.600; 1.35495
1519.33; 1934.900; 1515.200;11135.600; 1.36025
1523.21; 1943.400; 1523.900;11078.700; 1.35749
1527.08; 1933.100; 1519.400;10990.300; 1.35971
1530.96; 1919.300; 1500.300;10886.000; 1.35025
1534.83; 1959.000; 1544.300;10845.200; 1.35079
1538.70; 1915.700; 1508.600;10715.900; 1.35443
1542.56; 1897.400; 1500.900;10619.900; 1.36170
1546.42; 1913.400; 1517.300;10554.500; 1.35823
1550.28; 1907.800; 1513.400;10453.100; 1.35539
1554.14; 1901.600; 1508.800;10345.500; 1.35212
1557.99; 1912.100; 1525.700;10266.900; 1.35453
1561.84; 1881.800; 1498.400;10122.900; 1.35208
1565.69; 1892.800; 1516.200;10052.800; 1.35540
1569.54; 1882.300; 1503.300; 9933.900; 1.34722
1573.38; 1874.600; 1501.700; 9824.400; 1.34867
1577.22; 1896.600; 1527.000; 9752.100; 1.34741
1581.05; 1876.300; 1512.400; 9625.200; 1.34819
1584.89; 1884.000; 1524.900; 9522.100; 1.34772
1588.72; 1882.600; 1517.700; 9409.100; 1.33498
1592.54; 1850.900; 1506.200; 9274.600; 1.35289
1596.37; 1869.500; 1517.200; 9177.600; 1.33734
1600.19; 1853.100; 1510.100; 9050.400; 1.34209
1604.01; 1828.500; 1486.400; 8899.400; 1.33584
1607.82; 1838.300; 1509.800; 8796.900; 1.34602
1611.63; 1805.500; 1480.100; 8624.900; 1.34157
1615.44; 1880.400; 1553.300; 8575.400; 1.33179
1619.25; 1801.200; 1486.200; 8361.300; 1.33897
1623.05; 1788.200; 1479.000; 8208.600; 1.33775
1626.85; 1818.900; 1513.000; 8103.300; 1.33333
1630.64; 1827.000; 1524.000; 7969.700; 1.32783
1634.44; 1798.900; 1504.600; 7800.200; 1.33025
1638.23; 1797.400; 1503.300; 7652.600; 1.32033
1642.01; 1785.100; 1506.800; 7500.000; 1.33315
1645.80; 1784.200; 1499.800; 7336.400; 1.31223
1649.58; 1774.400; 1507.600; 7165.100; 1.32644
1653.35; 1820.000; 1554.000; 7043.000; 1.31461
1657.13; 1742.600; 1486.500; 6816.300; 1.31830
1660.90; 1746.800; 1500.200; 6658.700; 1.32053
1664.67; 1728.000; 1492.900; 6464.500; 1.32524
1668.43; 1739.800; 1506.200; 6271.300; 1.30960
1672.19; 1745.400; 1522.100; 6011.600; 1.30331
1675.95; 1702.400; 1493.800; 5613.400; 1.29554
1679.70; 1727.700; 1530.900; 5235.900; 1.27476
1683.46; 1670.100; 1497.800; 4742.900; 1.27494
1687.20; 1670.200; 1511.400; 4295.600; 1.24385
1690.95; 1647.400; 1504.400; 3867.300; 1.21811
1694.69; 1644.600; 1514.400; 3526.700; 1.18908
1698.43; 1599.900; 1482.500; 3185.600; 1.16157
1702.16; 1603.500; 1497.600; 2968.200; 1.14260
1705.89; 1602.900; 1499.300; 2779.100; 1.09178
1709.62; 1580.500; 1493.100; 2618.100; 1.10964
1713.35; 1616.200; 1522.600; 2525.400; 1.02994
1717.07; 1570.500; 1492.000; 2393.400; 1.06005
1720.79; 1599.900; 1513.300; 2338.300; 0.97894
1724.50; 1604.300; 1514.000; 2272.300; 0.92415
1728.21; 1573.100; 1499.400; 2201.400; 0.97887
1731.92; 1567.600; 1495.900; 2152.500; 0.96178
1735.63; 1556.900; 1483.800; 2109.800; 0.93266
1739.33; 1599.400; 1525.100; 2113.700; 0.89883
1743.02; 1571.000; 1493.200; 2053.800; 0.85767
1746.72; 1567.000; 1494.300; 2031.700; 0.86876
1750.41; 1575.000; 1502.900; 2014.600; 0.85108
1754.10; 1584.800; 1515.500; 2011.500; 0.85475

