
Integration time [ms]:   3.780
Averaging Nr. [scans]: 1
Smoothing Nr. [pixels]: 0
Data measured with spectrometer [name]: 1911294U1
Wave   ;Sample   ;Dark     ;Reference;Absorbance
[nm]   ;[counts] ;[counts] ;[counts] ;[A.U]

 860.61;  111.000;   67.750;  833.250; 1.24796
 864.82;  106.000;   49.750;  998.250; 1.22691
 869.02;  138.000;   59.750; 1169.250; 1.15164
 873.23;  119.000;   54.750; 1288.250; 1.28327
 877.43;  136.000;   53.750; 1415.250; 1.21888
 881.63;  144.000;   54.750; 1540.250; 1.22126
 885.83;  139.000;   49.750; 1684.250; 1.26278
 890.03;  145.000;   28.750; 1796.250; 1.18197
 894.23;  156.000;   40.750; 1929.250; 1.21448
 898.42;  160.000;   37.750; 2071.250; 1.22100
 902.62;  176.000;   56.750; 2213.250; 1.25729
 906.81;  176.000;   35.750; 2337.250; 1.21511
 911.00;  187.000;   53.750; 2523.250; 1.26794
 915.19;  202.000;   45.750; 2712.250; 1.23212
 919.38;  210.000;   47.750; 2963.250; 1.25453
 923.57;  240.000;   53.750; 3292.250; 1.24025
 927.76;  246.000;   40.750; 3728.250; 1.25445
 931.94;  266.000;   39.750; 4163.250; 1.26068
 936.13;  295.000;   53.750; 4579.250; 1.27320
 940.31;  289.000;   50.750; 4873.250; 1.30624
 944.49;  340.000;   63.750; 5167.250; 1.26657
 948.67;  323.000;   49.750; 5411.250; 1.29273
 952.85;  343.000;   50.750; 5679.250; 1.28464
 957.03;  356.000;   47.750; 5965.250; 1.28324
 961.21;  369.000;   58.750; 6236.250; 1.29910
 965.38;  364.000;   44.750; 6471.250; 1.30384
 969.55;  374.000;   37.750; 6719.250; 1.29821
 973.73;  394.000;   56.750; 6971.250; 1.31181
 977.90;  384.000;   42.750; 7222.250; 1.32302
 982.06;  405.000;   44.750; 7469.250; 1.31406
 986.23;  424.000;   51.750; 7739.250; 1.31495
 990.40;  439.000;   61.750; 7985.250; 1.32229
 994.56;  445.000;   65.750; 8243.250; 1.33369
 998.72;  464.000;   58.750; 8450.250; 1.31612
1002.88;  467.000;   57.750; 8670.250; 1.32314
1007.04;  470.000;   52.750; 8879.250; 1.32539
1011.20;  474.000;   49.750; 9068.250; 1.32751
1015.36;  487.000;   45.750; 9257.250; 1.31965
1019.51;  508.000;   60.750; 9402.250; 1.31987
1023.67;  528.000;   69.750; 9574.250; 1.31683
1027.82;  515.000;   61.750; 9729.250; 1.32898
1031.97;  531.000;   55.750; 9851.250; 1.31410
1036.12;  522.000;   49.750;10022.250; 1.32463
1040.27;  540.000;   61.750;10174.250; 1.32520
1044.41;  546.000;   73.750;10320.250; 1.33640
1048.56;  544.000;   53.750;10468.250; 1.32722
1052.70;  566.000;   58.750;10629.250; 1.31887
1056.84;  575.000;   47.750;10798.250; 1.30941
1060.98;  566.000;   67.750;10996.250; 1.34111
1065.11;  595.000;   63.750;11181.250; 1.32071
1069.25;  592.000;   63.750;11391.250; 1.33129
1073.38;  595.000;   56.750;11632.250; 1.33256
1077.52;  622.000;   70.750;11862.250; 1.33022
1081.65;  619.000;   62.750;12105.250; 1.33545
1085.77;  632.000;   60.750;12352.250; 1.33278
1089.90;  636.000;   56.750;12603.250; 1.33566
1094.03;  664.000;   65.750;12857.250; 1.33004
1098.15;  651.000;   68.750;13146.250; 1.35142
1102.27;  666.000;   66.750;13436.250; 1.34851
1106.39;  688.000;   69.750;13733.250; 1.34440
1110.51;  694.000;   69.750;14055.250; 1.35032
1114.63;  698.000;   49.750;14464.250; 1.34706
1118.74;  728.000;   73.750;14874.250; 1.35453
1122.85;  731.000;   70.750;15167.250; 1.35917
1126.96;  730.000;   61.750;15350.250; 1.35943
1131.07;  731.000;   57.750;15457.250; 1.35933
1135.18;  721.000;   63.750;15545.250; 1.37208
1139.29;  694.000;   45.750;15604.250; 1.38023
1143.39;  694.000;   62.750;15613.250; 1.39154
1147.49;  661.000;   71.750;15592.250; 1.42061
1151.59;  674.000;   71.750;15618.250; 1.41186
1155.69;  641.000;   64.750;15618.250; 1.43122
1159.78;  635.000;   61.750;15619.250; 1.43360
1163.88;  645.000;   66.750;15654.250; 1.43066
1167.97;  625.000;   60.750;15657.250; 1.44156
1172.06;  615.000;   60.750;15668.250; 1.44963
1176.15;  615.000;   53.750;15670.250; 1.44443
1180.23;  618.000;   59.750;15679.250; 1.44684
1184.32;  603.000;   50.750;15690.250; 1.45209
1188.40;  603.000;   57.750;15712.250; 1.45804
1192.48;  626.000;   55.750;15725.250; 1.43899
1196.56;  604.000;   53.750;15754.250; 1.45535
1200.64;  613.000;   72.750;15783.250; 1.46360
1204.71;  616.000;   50.750;15806.250; 1.44519
1208.78;  616.000;   69.750;15849.250; 1.46070
1212.85;  613.000;   54.750;15854.250; 1.45181
1216.92;  596.000;   37.750;15840.250; 1.45190
1220.99;  619.000;   49.750;15897.250; 1.44466
1225.05;  634.000;   60.750;15920.250; 1.44195
1229.11;  632.000;   53.750;15924.250; 1.43847
1233.17;  609.000;   58.750;15926.250; 1.45995
1237.23;  628.000;   49.750;15943.250; 1.43910
1241.29;  632.000;   51.750;15960.250; 1.43801
1245.34;  639.000;   79.750;16029.250; 1.45514
1249.39;  634.000;   55.750;16081.250; 1.44270
1253.44;  639.000;   36.750;16122.250; 1.42666
1257.49;  652.000;   73.750;16225.250; 1.44610
1261.53;  640.000;   40.750;16273.250; 1.43278
1265.58;  654.000;   46.750;16338.250; 1.42859
1269.62;  635.000;   46.750;16412.250; 1.44437
1273.65;  636.000;   55.750;16472.250; 1.45167
1277.69;  636.000;   53.750;16552.250; 1.45233
1281.72;  644.000;   65.750;16612.250; 1.45659
1285.76;  639.000;   66.750;16662.250; 1.46240
1289.79;  638.000;   56.750;16697.250; 1.45680
1293.81;  634.000;   44.750;16713.250; 1.45160
1297.84;  624.000;   49.750;16765.250; 1.46402
1301.86;  628.000;   43.750;16807.250; 1.45777
1305.88;  616.000;   58.750;16824.250; 1.47837
1309.90;  619.000;   49.750;16842.250; 1.46981
1313.92;  599.000;   55.750;16828.250; 1.48960
1317.93;  608.000;   65.750;16838.250; 1.49040
1321.94;  586.000;   46.750;16825.250; 1.49296
1325.95;  574.000;   64.750;16797.250; 1.51663
1329.96;  580.000;   63.750;16802.250; 1.51086
1333.96;  558.000;   52.750;16773.250; 1.51974
1337.96;  542.000;   63.750;16776.250; 1.54339
1341.96;  515.000;   46.750;16748.250; 1.55228
1345.96;  511.000;   59.750;16622.250; 1.56471
1349.95;  486.000;   42.750;16410.250; 1.56733
1353.95;  481.000;   67.750;16154.250; 1.59025
1357.94;  459.000;   50.750;15843.250; 1.58752
1361.92;  444.000;   50.750;15571.250; 1.59624
1365.91;  418.000;   46.750;15308.250; 1.61393
1369.89;  407.000;   50.750;15042.250; 1.62409
1373.87;  379.000;   48.750;14460.250; 1.63987
1377.85;  350.000;   60.750;13607.250; 1.67055
1381.82;  310.000;   48.750;12795.250; 1.68833
1385.80;  283.000;   50.750;12441.250; 1.72713
1389.77;  242.000;   54.750;12376.250; 1.81824
1393.74;  222.000;   63.750;12523.250; 1.89616
1397.70;  199.000;   57.750;12861.250; 1.95734
1401.66;  191.000;   57.750;13177.250; 1.99325
1405.62;  156.000;   34.750;13448.250; 2.04386
1409.58;  181.000;   50.750;13653.250; 2.01884
1413.54;  161.000;   50.750;13787.250; 2.09550
1417.49;  136.000;   27.750;13838.250; 2.10578
1421.44;  136.000;   63.750;13894.250; 2.28200
1425.39;  140.000;   54.750;13879.250; 2.20996
1429.33;  147.000;   64.750;13864.250; 2.22473
1433.27;  141.000;   54.750;13809.250; 2.20269
1437.21;  120.000;   48.750;13776.250; 2.28481
1441.15;  130.000;   52.750;13748.250; 2.24868
1445.09;  136.000;   60.750;13691.250; 2.25801
1449.02;  130.000;   57.750;13611.250; 2.27321
1452.95;  135.000;   52.750;13536.250; 2.21467
1456.87;  124.000;   53.750;13439.250; 2.27999
1460.80;  115.000;   43.750;13345.250; 2.27112
1464.72;  136.000;   59.750;13253.250; 2.23812
1468.64;  113.000;   43.750;13131.250; 2.27644
1472.55;  136.000;   63.750;13051.250; 2.25469
1476.47;  120.000;   43.750;12969.250; 2.22921
1480.38;  132.000;   38.750;12870.250; 2.13863
1484.28;  124.000;   54.750;12750.250; 2.26323
1488.19;  141.000;   50.750;12663.250; 2.14535
1492.09;  102.000;   28.750;12533.250; 2.23226
1495.99;  130.000;   58.750;12434.250; 2.23978
1499.89;  130.000;   46.750;12320.250; 2.16858
1503.78;  124.000;   48.750;12228.250; 2.20912
1507.67;  141.000;   52.750;12113.250; 2.13565
1511.56;  121.000;   33.750;11982.250; 2.13655
1515.44;  131.000;   50.750;11884.250; 2.16867
1519.33;  145.000;   48.750;11757.250; 2.08510
1523.21;  140.000;   35.750;11649.250; 2.04689
1527.08;  165.000;   57.750;11506.250; 2.02835
1530.96;  153.000;   39.750;11368.250; 2.00013
1534.83;  162.000;   52.750;11249.250; 2.01066
1538.70;  161.000;   57.750;11082.250; 2.02847
1542.56;  136.000;   28.750;10958.250; 2.00820
1546.42;  145.000;   39.750;10836.250; 2.01106
1550.28;  159.000;   58.750;10683.250; 2.02522
1554.14;  153.000;   39.750;10510.250; 1.96593
1557.99;  155.000;   41.750;10388.250; 1.96076
1561.84;  160.000;   33.750;10234.250; 1.90739
1565.69;  173.000;   40.750;10095.250; 1.88096
1569.54;  152.000;   24.750; 9939.250; 1.89161
1573.38;  161.000;   40.750; 9804.250; 1.90952
1577.22;  154.000;   31.750; 9649.250; 1.89581
1581.05;  162.000;   49.750; 9522.250; 1.92628
1584.89;  175.000;   45.750; 9369.250; 1.85815
1588.72;  174.000;   41.750; 9215.250; 1.84114
1592.54;  163.000;   35.750; 9061.250; 1.85081
1596.37;  151.000;   22.750; 8908.250; 1.84062
1600.19;  167.000;   43.750; 8774.250; 1.85025
1604.01;  156.000;   33.750; 8610.250; 1.84606
1607.82;  157.000;   31.750; 8473.250; 1.82864
1611.63;  146.000;   22.750; 8316.250; 1.82795
1615.44;  176.000;   26.750; 8167.250; 1.73674
1619.25;  154.000;   34.750; 7998.250; 1.82465
1623.05;  144.000;   13.750; 7822.250; 1.77779
1626.85;  157.000;   26.750; 7668.250; 1.76840
1630.64;  171.000;   42.750; 7511.250; 1.76518
1634.44;  162.000;   26.750; 7307.250; 1.73102
1638.23;  137.000;   18.750; 7114.250; 1.77818
1642.01;  146.000;   39.750; 6938.250; 1.81243
1645.80;  143.000;   42.750; 6743.250; 1.82502
1649.58;  156.000;   38.750; 6531.250; 1.74330
1653.35;  151.000;   44.750; 6309.250; 1.77056
1657.13;  137.000;   36.750; 6064.250; 1.77905
1660.90;  135.000;   34.750; 5808.250; 1.76035
1664.67;  122.000;   28.750; 5491.250; 1.76774
1668.43;  126.000;   24.750; 5119.250; 1.70171
1672.19;  128.000;   35.750; 4656.250; 1.69972
1675.95;  109.000;   31.750; 4113.250; 1.72292
1679.70;  104.000;   46.750; 3563.250; 1.78834
1683.46;   93.000;   23.750; 3047.250; 1.64009
1687.20;   91.000;   39.750; 2617.250; 1.70150
1690.95;   98.000;   36.750; 2243.250; 1.55660
1694.69;  101.000;   56.750; 1964.250; 1.63455
1698.43;   88.000;   22.750; 1699.250; 1.40982
1702.16;   87.000;   44.750; 1533.250; 1.54692
1705.89;   82.000;   30.750; 1372.250; 1.41790
1709.62;   73.000;   25.750; 1277.250; 1.42303
1713.35;   65.000;   17.750; 1187.250; 1.39360
1717.07;   70.000;   42.750; 1123.250; 1.59826
1720.79;   72.000;   41.750; 1064.250; 1.52894
1724.50;   93.000;   44.750; 1019.250; 1.30528
1728.21;   93.000;   29.750;  974.250; 1.17414
1731.92;   77.000;   25.750;  931.250; 1.24719
1735.63;   73.000;   34.750;  925.250; 1.36700
1739.33;   94.000;   23.750;  909.250; 1.10054
1743.02;   71.000;   21.750;  865.250; 1.23368
1746.72;   81.000;   33.750;  872.250; 1.24910
1750.41;   79.000;   37.750;  865.250; 1.30234
1754.10;   79.000;   44.750;  846.250; 1.36924

