
Integration time [ms]:   3.780
Averaging Nr. [scans]: 1
Smoothing Nr. [pixels]: 0
Data measured with spectrometer [name]: 1911294U1
Wave   ;Sample   ;Dark     ;Reference;Absorbance
[nm]   ;[counts] ;[counts] ;[counts] ;[A.U]

 860.61;   91.000;   67.750;  833.250; 1.51752
 864.82;   85.000;   49.750;  998.250; 1.42988
 869.02;   86.000;   59.750; 1169.250; 1.62600
 873.23;   84.000;   54.750; 1288.250; 1.62501
 877.43;   81.000;   53.750; 1415.250; 1.69865
 881.63;   90.000;   54.750; 1540.250; 1.62471
 885.83;   97.000;   49.750; 1684.250; 1.53898
 890.03;   81.000;   28.750; 1796.250; 1.52927
 894.23;   90.000;   40.750; 1929.250; 1.58371
 898.42;   97.000;   37.750; 2071.250; 1.53556
 902.62;  113.000;   56.750; 2213.250; 1.58363
 906.81;  111.000;   35.750; 2337.250; 1.48550
 911.00;  119.000;   53.750; 2523.250; 1.57803
 915.19;  121.000;   45.750; 2712.250; 1.54944
 919.38;  137.000;   47.750; 2963.250; 1.51410
 923.57;  153.000;   53.750; 3292.250; 1.51361
 927.76;  154.000;   40.750; 3728.250; 1.51269
 931.94;  164.000;   39.750; 4163.250; 1.52097
 936.13;  189.000;   53.750; 4579.250; 1.52453
 940.31;  197.000;   50.750; 4873.250; 1.51818
 944.49;  209.000;   63.750; 5167.250; 1.54575
 948.67;  203.000;   49.750; 5411.250; 1.54389
 952.85;  212.000;   50.750; 5679.250; 1.54289
 957.03;  229.000;   47.750; 5965.250; 1.51386
 961.21;  239.000;   58.750; 6236.250; 1.53494
 965.38;  239.000;   44.750; 6471.250; 1.51961
 969.55;  224.000;   37.750; 6719.250; 1.55478
 973.73;  252.000;   56.750; 6971.250; 1.54917
 977.90;  265.000;   42.750; 7222.250; 1.50925
 982.06;  268.000;   44.750; 7469.250; 1.52188
 986.23;  288.000;   51.750; 7739.250; 1.51241
 990.40;  296.000;   61.750; 7985.250; 1.52924
 994.56;  288.000;   65.750; 8243.250; 1.56578
 998.72;  297.000;   58.750; 8450.250; 1.54681
1002.88;  298.000;   57.750; 8670.250; 1.55447
1007.04;  308.000;   52.750; 8879.250; 1.53882
1011.20;  314.000;   49.750; 9068.250; 1.53312
1015.36;  326.000;   45.750; 9257.250; 1.51678
1019.51;  327.000;   60.750; 9402.250; 1.54513
1023.67;  337.000;   69.750; 9574.250; 1.55101
1027.82;  332.000;   61.750; 9729.250; 1.55355
1031.97;  339.000;   55.750; 9851.250; 1.53886
1036.12;  333.000;   49.750;10022.250; 1.54663
1040.27;  354.000;   61.750;10174.250; 1.53910
1044.41;  353.000;   73.750;10320.250; 1.56458
1048.56;  360.000;   53.750;10468.250; 1.53156
1052.70;  368.000;   58.750;10629.250; 1.53379
1056.84;  371.000;   47.750;10798.250; 1.52189
1060.98;  377.000;   67.750;10996.250; 1.54825
1065.11;  383.000;   63.750;11181.250; 1.54188
1069.25;  394.000;   63.750;11391.250; 1.53529
1073.38;  404.000;   56.750;11632.250; 1.52290
1077.52;  404.000;   70.750;11862.250; 1.54880
1081.65;  409.000;   62.750;12105.250; 1.54133
1085.77;  412.000;   60.750;12352.250; 1.54399
1089.90;  425.000;   56.750;12603.250; 1.53238
1094.03;  434.000;   65.750;12857.250; 1.54078
1098.15;  444.000;   68.750;13146.250; 1.54220
1102.27;  439.000;   66.750;13436.250; 1.55528
1106.39;  464.000;   69.750;13733.250; 1.53979
1110.51;  471.000;   69.750;14055.250; 1.54226
1114.63;  463.000;   49.750;14464.250; 1.54259
1118.74;  478.000;   73.750;14874.250; 1.56363
1122.85;  492.000;   70.750;15167.250; 1.55434
1126.96;  480.000;   61.750;15350.250; 1.56293
1131.07;  494.000;   57.750;15457.250; 1.54777
1135.18;  478.000;   63.750;15545.250; 1.57255
1139.29;  465.000;   45.750;15604.250; 1.56949
1143.39;  466.000;   62.750;15613.250; 1.58617
1147.49;  450.000;   71.750;15592.250; 1.61313
1151.59;  437.000;   71.750;15618.250; 1.62904
1155.69;  423.000;   64.750;15618.250; 1.63764
1159.78;  445.000;   61.750;15619.250; 1.60846
1163.88;  429.000;   66.750;15654.250; 1.63377
1167.97;  415.000;   60.750;15657.250; 1.64372
1172.06;  411.000;   60.750;15668.250; 1.64896
1176.15;  420.000;   53.750;15670.250; 1.62981
1180.23;  401.000;   59.750;15679.250; 1.66059
1184.32;  395.000;   50.750;15690.250; 1.65735
1188.40;  416.000;   57.750;15712.250; 1.64045
1192.48;  402.000;   55.750;15725.250; 1.65567
1196.56;  410.000;   53.750;15754.250; 1.64416
1200.64;  411.000;   72.750;15783.250; 1.66695
1204.71;  396.000;   50.750;15806.250; 1.65930
1208.78;  410.000;   69.750;15849.250; 1.66630
1212.85;  419.000;   54.750;15854.250; 1.63724
1216.92;  395.000;   37.750;15840.250; 1.64575
1220.99;  416.000;   49.750;15897.250; 1.63618
1225.05;  422.000;   60.750;15920.250; 1.64248
1229.11;  421.000;   53.750;15924.250; 1.63563
1233.17;  408.000;   58.750;15926.250; 1.65737
1237.23;  424.000;   49.750;15943.250; 1.62806
1241.29;  412.000;   51.750;15960.250; 1.64503
1245.34;  429.000;   79.750;16029.250; 1.65961
1249.39;  427.000;   55.750;16081.250; 1.63515
1253.44;  412.000;   36.750;16122.250; 1.63211
1257.49;  428.000;   73.750;16225.250; 1.65890
1261.53;  434.000;   40.750;16273.250; 1.61572
1265.58;  433.000;   46.750;16338.250; 1.62509
1269.62;  434.000;   46.750;16412.250; 1.62594
1273.65;  436.000;   55.750;16472.250; 1.63521
1277.69;  444.000;   53.750;16552.250; 1.62610
1281.72;  439.000;   65.750;16612.250; 1.64671
1285.76;  441.000;   66.750;16662.250; 1.64683
1289.79;  443.000;   56.750;16697.250; 1.63430
1293.81;  446.000;   44.750;16713.250; 1.61848
1297.84;  424.000;   49.750;16765.250; 1.64996
1301.86;  436.000;   43.750;16807.250; 1.63080
1305.88;  423.000;   58.750;16824.250; 1.66302
1309.90;  426.000;   49.750;16842.250; 1.64964
1313.92;  413.000;   55.750;16828.250; 1.67163
1317.93;  418.000;   65.750;16838.250; 1.67775
1321.94;  408.000;   46.750;16825.250; 1.66695
1325.95;  414.000;   64.750;16797.250; 1.68042
1329.96;  405.000;   63.750;16802.250; 1.69064
1333.96;  401.000;   52.750;16773.250; 1.68136
1337.96;  375.000;   63.750;16776.250; 1.72993
1341.96;  368.000;   46.750;16748.250; 1.71591
1345.96;  369.000;   59.750;16622.250; 1.72882
1349.95;  361.000;   42.750;16410.250; 1.71121
1353.95;  345.000;   67.750;16154.250; 1.76359
1357.94;  346.000;   50.750;15843.250; 1.72826
1361.92;  322.000;   50.750;15571.250; 1.75754
1365.91;  309.000;   46.750;15308.250; 1.76488
1369.89;  301.000;   50.750;15042.250; 1.77747
1373.87;  289.000;   48.750;14460.250; 1.77805
1377.85;  267.000;   60.750;13607.250; 1.81743
1381.82;  241.000;   48.750;12795.250; 1.82152
1385.80;  225.000;   50.750;12441.250; 1.85192
1389.77;  223.000;   54.750;12376.250; 1.86471
1393.74;  201.000;   63.750;12523.250; 1.95799
1397.70;  202.000;   57.750;12861.250; 1.94821
1401.66;  181.000;   57.750;13177.250; 2.02713
1405.62;  169.000;   34.750;13448.250; 1.99963
1409.58;  174.000;   50.750;13653.250; 2.04283
1413.54;  175.000;   50.750;13787.250; 2.04358
1417.49;  155.000;   27.750;13838.250; 2.03555
1421.44;  165.000;   63.750;13894.250; 2.13544
1425.39;  169.000;   54.750;13879.250; 2.08279
1429.33;  181.000;   64.750;13864.250; 2.07447
1433.27;  160.000;   54.750;13809.250; 2.11622
1437.21;  162.000;   48.750;13776.250; 2.08355
1441.15;  173.000;   52.750;13748.250; 2.05649
1445.09;  167.000;   60.750;13691.250; 2.10818
1449.02;  155.000;   57.750;13611.250; 2.14416
1452.95;  156.000;   52.750;13536.250; 2.11591
1456.87;  151.000;   53.750;13439.250; 2.13874
1460.80;  151.000;   43.750;13345.250; 2.09350
1464.72;  150.000;   59.750;13253.250; 2.16491
1468.64;  152.000;   43.750;13131.250; 2.08243
1472.55;  160.000;   63.750;13051.250; 2.13012
1476.47;  152.000;   43.750;12969.250; 2.07702
1480.38;  172.000;   38.750;12870.250; 1.98361
1484.28;  163.000;   54.750;12750.250; 2.06922
1488.19;  150.000;   50.750;12663.250; 2.10407
1492.09;  152.000;   28.750;12533.250; 2.00628
1495.99;  160.000;   58.750;12434.250; 2.08717
1499.89;  166.000;   46.750;12320.250; 2.01251
1503.78;  158.000;   48.750;12228.250; 2.04721
1507.67;  171.000;   52.750;12113.250; 2.00856
1511.56;  142.000;   33.750;11982.250; 2.04289
1515.44;  158.000;   50.750;11884.250; 2.04272
1519.33;  161.000;   48.750;11757.250; 2.01831
1523.21;  171.000;   35.750;11649.250; 1.93383
1527.08;  164.000;   57.750;11506.250; 2.03242
1530.96;  159.000;   39.750;11368.250; 1.97771
1534.83;  173.000;   52.750;11249.250; 1.96900
1538.70;  177.000;   57.750;11082.250; 1.96590
1542.56;  144.000;   28.750;10958.250; 1.97696
1546.42;  168.000;   39.750;10836.250; 1.92523
1550.28;  170.000;   58.750;10683.250; 1.98001
1554.14;  163.000;   39.750;10510.250; 1.92918
1557.99;  151.000;   41.750;10388.250; 1.97637
1561.84;  162.000;   33.750;10234.250; 1.90056
1565.69;  160.000;   40.750;10095.250; 1.92590
1569.54;  159.000;   24.750; 9939.250; 1.86836
1573.38;  170.000;   40.750; 9804.250; 1.87817
1577.22;  152.000;   31.750; 9649.250; 1.90298
1581.05;  155.000;   49.750; 9522.250; 1.95424
1584.89;  172.000;   45.750; 9369.250; 1.86835
1588.72;  158.000;   41.750; 9215.250; 1.89714
1592.54;  151.000;   35.750; 9061.250; 1.89383
1596.37;  156.000;   22.750; 8908.250; 1.82401
1600.19;  164.000;   43.750; 8774.250; 1.86095
1604.01;  138.000;   33.750; 8610.250; 1.91523
1607.82;  141.000;   31.750; 8473.250; 1.88800
1611.63;  142.000;   22.750; 8316.250; 1.84228
1615.44;  162.000;   26.750; 8167.250; 1.77951
1619.25;  146.000;   34.750; 7998.250; 1.85480
1623.05;  137.000;   13.750; 7822.250; 1.80178
1626.85;  143.000;   26.750; 7668.250; 1.81779
1630.64;  153.000;   42.750; 7511.250; 1.83085
1634.44;  139.000;   26.750; 7307.250; 1.81197
1638.23;  119.000;   18.750; 7114.250; 1.84990
1642.01;  123.000;   39.750; 6938.250; 1.91837
1645.80;  132.000;   42.750; 6743.250; 1.87550
1649.58;  127.000;   38.750; 6531.250; 1.86670
1653.35;  140.000;   44.750; 6309.250; 1.81802
1657.13;  108.000;   36.750; 6064.250; 1.92735
1660.90;  140.000;   34.750; 5808.250; 1.73922
1664.67;   96.000;   28.750; 5491.250; 1.90970
1668.43;  110.000;   24.750; 5119.250; 1.77641
1672.19;  106.000;   35.750; 4656.250; 1.81804
1675.95;   92.000;   31.750; 4113.250; 1.83086
1679.70;   80.000;   46.750; 3563.250; 2.02432
1683.46;   70.000;   23.750; 3047.250; 1.81540
1687.20;   69.000;   39.750; 2617.250; 1.94507
1690.95;   69.000;   36.750; 2243.250; 1.83517
1694.69;   62.000;   56.750; 1964.250; 2.56031
1698.43;   76.000;   22.750; 1699.250; 1.49808
1702.16;   63.000;   44.750; 1533.250; 1.91149
1705.89;   47.000;   30.750; 1372.250; 1.91674
1709.62;   41.000;   25.750; 1277.250; 1.91416
1713.35;   55.000;   17.750; 1187.250; 1.49687
1717.07;   46.000;   42.750; 1123.250; 2.52174
1720.79;   64.000;   41.750; 1064.250; 1.66233
1724.50;   58.000;   44.750; 1019.250; 1.86657
1728.21;   43.000;   29.750;  974.250; 1.85299
1731.92;   44.000;   25.750;  931.250; 1.69563
1735.63;   47.000;   34.750;  925.250; 1.86150
1739.33;   44.000;   23.750;  909.250; 1.64076
1743.02;   51.000;   21.750;  865.250; 1.45996
1746.72;   40.000;   33.750;  872.250; 2.12762
1750.41;   62.000;   37.750;  865.250; 1.53306
1754.10;   54.000;   44.750;  846.250; 1.93776

