
Integration time [ms]:   3.780
Averaging Nr. [scans]: 1
Smoothing Nr. [pixels]: 0
Data measured with spectrometer [name]: 1911294U1
Wave   ;Sample   ;Dark     ;Reference;Absorbance
[nm]   ;[counts] ;[counts] ;[counts] ;[A.U]

 860.61;  119.000;   67.750;  833.250; 1.17425
 864.82;  125.000;   49.750;  998.250; 1.10053
 869.02;  137.000;   59.750; 1169.250; 1.15723
 873.23;  142.000;   54.750; 1288.250; 1.15037
 877.43;  146.000;   53.750; 1415.250; 1.16905
 881.63;  176.000;   54.750; 1540.250; 1.08819
 885.83;  177.000;   49.750; 1684.250; 1.10873
 890.03;  165.000;   28.750; 1796.250; 1.11302
 894.23;  177.000;   40.750; 1929.250; 1.14178
 898.42;  187.000;   37.750; 2071.250; 1.13433
 902.62;  210.000;   56.750; 2213.250; 1.14835
 906.81;  211.000;   35.750; 2337.250; 1.11835
 911.00;  219.000;   53.750; 2523.250; 1.17447
 915.19;  249.000;   45.750; 2712.250; 1.11791
 919.38;  270.000;   47.750; 2963.250; 1.11787
 923.57;  283.000;   53.750; 3292.250; 1.15003
 927.76;  308.000;   40.750; 3728.250; 1.13981
 931.94;  350.000;   39.750; 4163.250; 1.12355
 936.13;  361.000;   53.750; 4579.250; 1.16817
 940.31;  397.000;   50.750; 4873.250; 1.14388
 944.49;  434.000;   63.750; 5167.250; 1.13937
 948.67;  430.000;   49.750; 5411.250; 1.14922
 952.85;  437.000;   50.750; 5679.250; 1.16352
 957.03;  461.000;   47.750; 5965.250; 1.15593
 961.21;  477.000;   58.750; 6236.250; 1.16938
 965.38;  485.000;   44.750; 6471.250; 1.16428
 969.55;  491.000;   37.750; 6719.250; 1.16854
 973.73;  525.000;   56.750; 6971.250; 1.16928
 977.90;  531.000;   42.750; 7222.250; 1.16745
 982.06;  543.000;   44.750; 7469.250; 1.17322
 986.23;  569.000;   51.750; 7739.250; 1.17208
 990.40;  594.000;   61.750; 7985.250; 1.17280
 994.56;  595.000;   65.750; 8243.250; 1.18896
 998.72;  622.000;   58.750; 8450.250; 1.17314
1002.88;  632.000;   57.750; 8670.250; 1.17603
1007.04;  659.000;   52.750; 8879.250; 1.16314
1011.20;  669.000;   49.750; 9068.250; 1.16327
1015.36;  676.000;   45.750; 9257.250; 1.16482
1019.51;  685.000;   60.750; 9402.250; 1.17506
1023.67;  712.000;   69.750; 9574.250; 1.17023
1027.82;  706.000;   61.750; 9729.250; 1.17626
1031.97;  721.000;   55.750; 9851.250; 1.16804
1036.12;  724.000;   49.750;10022.250; 1.16998
1040.27;  743.000;   61.750;10174.250; 1.17155
1044.41;  768.000;   73.750;10320.250; 1.16906
1048.56;  775.000;   53.750;10468.250; 1.15955
1052.70;  783.000;   58.750;10629.250; 1.16421
1056.84;  780.000;   47.750;10798.250; 1.16677
1060.98;  806.000;   67.750;10996.250; 1.17036
1065.11;  808.000;   63.750;11181.250; 1.17429
1069.25;  838.000;   63.750;11391.250; 1.16525
1073.38;  852.000;   56.750;11632.250; 1.16304
1077.52;  888.000;   70.750;11862.250; 1.15921
1081.65;  877.000;   62.750;12105.250; 1.16996
1085.77;  888.000;   60.750;12352.250; 1.17197
1089.90;  907.000;   56.750;12603.250; 1.16898
1094.03;  914.000;   65.750;12857.250; 1.17840
1098.15;  944.000;   68.750;13146.250; 1.17439
1102.27;  955.000;   66.750;13436.250; 1.17758
1106.39;  988.000;   69.750;13733.250; 1.17260
1110.51; 1002.000;   69.750;14055.250; 1.17615
1114.63; 1021.000;   49.750;14464.250; 1.17147
1118.74; 1042.000;   73.750;14874.250; 1.18429
1122.85; 1064.000;   70.750;15167.250; 1.18182
1126.96; 1052.000;   61.750;15350.250; 1.18862
1131.07; 1057.000;   57.750;15457.250; 1.18783
1135.18; 1037.000;   63.750;15545.250; 1.20159
1139.29; 1015.000;   45.750;15604.250; 1.20553
1143.39; 1012.000;   62.750;15613.250; 1.21436
1147.49;  972.000;   71.750;15592.250; 1.23654
1151.59;  973.000;   71.750;15618.250; 1.23679
1155.69;  939.000;   64.750;15618.250; 1.25019
1159.78;  930.000;   61.750;15619.250; 1.25330
1163.88;  946.000;   66.750;15654.250; 1.24866
1167.97;  912.000;   60.750;15657.250; 1.26297
1172.06;  911.000;   60.750;15668.250; 1.26379
1176.15;  896.000;   53.750;15670.250; 1.26814
1180.23;  911.000;   59.750;15679.250; 1.26361
1184.32;  867.000;   50.750;15690.250; 1.28240
1188.40;  880.000;   57.750;15712.250; 1.27964
1192.48;  884.000;   55.750;15725.250; 1.27689
1196.56;  898.000;   53.750;15754.250; 1.26944
1200.64;  890.000;   72.750;15783.250; 1.28384
1204.71;  902.000;   50.750;15806.250; 1.26738
1208.78;  914.000;   69.750;15849.250; 1.27162
1212.85;  918.000;   54.750;15854.250; 1.26251
1216.92;  901.000;   37.750;15840.250; 1.26259
1220.99;  907.000;   49.750;15897.250; 1.26685
1225.05;  925.000;   60.750;15920.250; 1.26365
1229.11;  935.000;   53.750;15924.250; 1.25549
1233.17;  929.000;   58.750;15926.250; 1.26086
1237.23;  937.000;   49.750;15943.250; 1.25317
1241.29;  922.000;   51.750;15960.250; 1.26199
1245.34;  947.000;   79.750;16029.250; 1.26460
1249.39;  938.000;   55.750;16081.250; 1.25922
1253.44;  935.000;   36.750;16122.250; 1.25304
1257.49;  943.000;   73.750;16225.250; 1.26907
1261.53;  953.000;   40.750;16273.250; 1.25027
1265.58;  958.000;   46.750;16338.250; 1.25232
1269.62;  951.000;   46.750;16412.250; 1.25764
1273.65;  964.000;   55.750;16472.250; 1.25708
1277.69;  960.000;   53.750;16552.250; 1.26020
1281.72;  955.000;   65.750;16612.250; 1.26968
1285.76;  961.000;   66.750;16662.250; 1.26853
1289.79;  958.000;   56.750;16697.250; 1.26632
1293.81;  962.000;   44.750;16713.250; 1.25941
1297.84;  932.000;   49.750;16765.250; 1.27753
1301.86;  956.000;   43.750;16807.250; 1.26425
1305.88;  931.000;   58.750;16824.250; 1.28378
1309.90;  933.000;   49.750;16842.250; 1.27903
1313.92;  903.000;   55.750;16828.250; 1.29659
1317.93;  906.000;   65.750;16838.250; 1.30019
1321.94;  882.000;   46.750;16825.250; 1.30294
1325.95;  848.000;   64.750;16797.250; 1.32966
1329.96;  849.000;   63.750;16802.250; 1.32871
1333.96;  818.000;   52.750;16773.250; 1.33945
1337.96;  791.000;   63.750;16776.250; 1.36136
1341.96;  753.000;   46.750;16748.250; 1.37380
1345.96;  740.000;   59.750;16622.250; 1.38646
1349.95;  715.000;   42.750;16410.250; 1.38645
1353.95;  685.000;   67.750;16154.250; 1.41600
1357.94;  664.000;   50.750;15843.250; 1.41081
1361.92;  621.000;   50.750;15571.250; 1.43484
1365.91;  606.000;   46.750;15308.250; 1.43599
1369.89;  568.000;   50.750;15042.250; 1.46214
1373.87;  517.000;   48.750;14460.250; 1.48823
1377.85;  466.000;   60.750;13607.250; 1.52410
1381.82;  417.000;   48.750;12795.250; 1.53925
1385.80;  357.000;   50.750;12441.250; 1.60701
1389.77;  302.000;   54.750;12376.250; 1.69753
1393.74;  261.000;   63.750;12523.250; 1.80048
1397.70;  225.000;   57.750;12861.250; 1.88396
1401.66;  191.000;   57.750;13177.250; 1.99325
1405.62;  165.000;   34.750;13448.250; 2.01276
1409.58;  159.000;   50.750;13653.250; 2.09919
1413.54;  131.000;   50.750;13787.250; 2.23343
1417.49;  111.000;   27.750;13838.250; 2.21983
1421.44;  120.000;   63.750;13894.250; 2.39072
1425.39;  107.000;   54.750;13879.250; 2.42256
1429.33;  124.000;   64.750;13864.250; 2.36717
1433.27;  114.000;   54.750;13809.250; 2.36576
1437.21;  100.000;   48.750;13776.250; 2.42790
1441.15;  120.000;   52.750;13748.250; 2.30889
1445.09;  100.000;   60.750;13691.250; 2.54067
1449.02;   94.000;   57.750;13611.250; 2.57274
1452.95;  107.000;   52.750;13536.250; 2.39540
1456.87;  100.000;   53.750;13439.250; 2.46152
1460.80;   92.000;   43.750;13345.250; 2.44040
1464.72;   76.000;   59.750;13253.250; 2.90951
1468.64;  101.000;   43.750;13131.250; 2.35908
1472.55;  100.000;   63.750;13051.250; 2.55422
1476.47;   96.000;   43.750;12969.250; 2.39336
1480.38;  100.000;   38.750;12870.250; 2.32117
1484.28;  104.000;   54.750;12750.250; 2.41124
1488.19;  109.000;   50.750;12663.250; 2.33551
1492.09;   92.000;   28.750;12533.250; 2.29601
1495.99;  114.000;   58.750;12434.250; 2.35023
1499.89;  124.000;   46.750;12320.250; 2.20107
1503.78;  134.000;   48.750;12228.250; 2.15494
1507.67;  123.000;   52.750;12113.250; 2.23472
1511.56;  124.000;   33.750;11982.250; 2.12187
1515.44;  123.000;   50.750;11884.250; 2.21428
1519.33;  126.000;   48.750;11757.250; 2.18060
1523.21;  147.000;   35.750;11649.250; 2.01866
1527.08;  152.000;   57.750;11506.250; 2.08447
1530.96;  150.000;   39.750;11368.250; 2.01179
1534.83;  170.000;   52.750;11249.250; 1.97997
1538.70;  155.000;   57.750;11082.250; 2.05447
1542.56;  164.000;   28.750;10958.250; 1.90746
1546.42;  170.000;   39.750;10836.250; 1.91851
1550.28;  171.000;   58.750;10683.250; 1.97612
1554.14;  181.000;   39.750;10510.250; 1.86998
1557.99;  164.000;   41.750;10388.250; 1.92754
1561.84;  176.000;   33.750;10234.250; 1.85557
1565.69;  169.000;   40.750;10095.250; 1.89430
1569.54;  172.000;   24.750; 9939.250; 1.82822
1573.38;  177.000;   40.750; 9804.250; 1.85527
1577.22;  172.000;   31.750; 9649.250; 1.83616
1581.05;  186.000;   49.750; 9522.250; 1.84213
1584.89;  205.000;   45.750; 9369.250; 1.76750
1588.72;  198.000;   41.750; 9215.250; 1.76872
1592.54;  189.000;   35.750; 9061.250; 1.77007
1596.37;  180.000;   22.750; 8908.250; 1.75209
1600.19;  197.000;   43.750; 8774.250; 1.75564
1604.01;  193.000;   33.750; 8610.250; 1.73123
1607.82;  203.000;   31.750; 8473.250; 1.69279
1611.63;  187.000;   22.750; 8316.250; 1.70323
1615.44;  200.000;   26.750; 8167.250; 1.67198
1619.25;  185.000;   34.750; 7998.250; 1.72429
1623.05;  187.000;   13.750; 7822.250; 1.65389
1626.85;  186.000;   26.750; 7668.250; 1.68110
1630.64;  208.000;   42.750; 7511.250; 1.65509
1634.44;  188.000;   26.750; 7307.250; 1.65466
1638.23;  177.000;   18.750; 7114.250; 1.65164
1642.01;  194.000;   39.750; 6938.250; 1.65053
1645.80;  191.000;   42.750; 6743.250; 1.65511
1649.58;  192.000;   38.750; 6531.250; 1.62701
1653.35;  196.000;   44.750; 6309.250; 1.61719
1657.13;  161.000;   36.750; 6064.250; 1.68584
1660.90;  189.000;   34.750; 5808.250; 1.57321
1664.67;  146.000;   28.750; 5491.250; 1.66828
1668.43;  168.000;   24.750; 5119.250; 1.55101
1672.19;  158.000;   35.750; 4656.250; 1.57744
1675.95;  139.000;   31.750; 4113.250; 1.58042
1679.70;  121.000;   46.750; 3563.250; 1.67541
1683.46;  119.000;   23.750; 3047.250; 1.50164
1687.20;  108.000;   39.750; 2617.250; 1.57710
1690.95;   99.000;   36.750; 2243.250; 1.54956
1694.69;  106.000;   56.750; 1964.250; 1.58806
1698.43;   89.000;   22.750; 1699.250; 1.40322
1702.16;   82.000;   44.750; 1533.250; 1.60162
1705.89;   84.000;   30.750; 1372.250; 1.40127
1709.62;   78.000;   25.750; 1277.250; 1.37934
1713.35;   89.000;   17.750; 1187.250; 1.21522
1717.07;   75.000;   42.750; 1123.250; 1.52510
1720.79;   95.000;   41.750; 1064.250; 1.28334
1724.50;   90.000;   44.750; 1019.250; 1.33316
1728.21;   83.000;   29.750;  974.250; 1.24888
1731.92;   85.000;   25.750;  931.250; 1.18420
1735.63;   82.000;   34.750;  925.250; 1.27523
1739.33;   94.000;   23.750;  909.250; 1.10054
1743.02;   81.000;   21.750;  865.250; 1.15340
1746.72;   82.000;   33.750;  872.250; 1.24001
1750.41;   93.000;   37.750;  865.250; 1.17544
1754.10;   87.000;   44.750;  846.250; 1.27808

