
Integration time [ms]:   3.780
Averaging Nr. [scans]: 1
Smoothing Nr. [pixels]: 0
Data measured with spectrometer [name]: 1911294U1
Wave   ;Sample   ;Dark     ;Reference;Absorbance
[nm]   ;[counts] ;[counts] ;[counts] ;[A.U]

 860.61;   77.000;   67.750;  833.250; 1.91780
 864.82;   72.000;   49.750;  998.250; 1.62971
 869.02;   78.000;   59.750; 1169.250; 1.78386
 873.23;   75.000;   54.750; 1288.250; 1.78471
 877.43;   63.000;   53.750; 1415.250; 2.16788
 881.63;   80.000;   54.750; 1540.250; 1.76961
 885.83;   68.000;   49.750; 1684.250; 1.95212
 890.03;   67.000;   28.750; 1796.250; 1.66473
 894.23;   61.000;   40.750; 1929.250; 1.96969
 898.42;   63.000;   37.750; 2071.250; 1.90598
 902.62;   72.000;   56.750; 2213.250; 2.15048
 906.81;   70.000;   35.750; 2337.250; 1.82735
 911.00;   77.000;   53.750; 2523.250; 2.02619
 915.19;   88.000;   45.750; 2712.250; 1.80011
 919.38;   85.000;   47.750; 2963.250; 1.89359
 923.57;   96.000;   53.750; 3292.250; 1.88452
 927.76;   99.000;   40.750; 3728.250; 1.80144
 931.94;   94.000;   39.750; 4163.250; 1.88087
 936.13;  110.000;   53.750; 4579.250; 1.90554
 940.31;  120.000;   50.750; 4873.250; 1.84285
 944.49;  130.000;   63.750; 5167.250; 1.88668
 948.67;  129.000;   49.750; 5411.250; 1.83029
 952.85;  119.000;   50.750; 5679.250; 1.91629
 957.03;  133.000;   47.750; 5965.250; 1.84144
 961.21;  126.000;   58.750; 6236.250; 1.96312
 965.38;  117.000;   44.750; 6471.250; 1.94914
 969.55;  120.000;   37.750; 6719.250; 1.90974
 973.73;  129.000;   56.750; 6971.250; 1.98092
 977.90;  132.000;   42.750; 7222.250; 1.90549
 982.06;  147.000;   44.750; 7469.250; 1.86100
 986.23;  118.000;   51.750; 7739.250; 2.06460
 990.40;  164.000;   61.750; 7985.250; 1.88925
 994.56;  160.000;   65.750; 8243.250; 1.93834
 998.72;  152.000;   58.750; 8450.250; 1.95419
1002.88;  149.000;   57.750; 8670.250; 1.97490
1007.04;  163.000;   52.750; 8879.250; 1.90341
1011.20;  156.000;   49.750; 9068.250; 1.92881
1015.36;  158.000;   45.750; 9257.250; 1.91414
1019.51;  172.000;   60.750; 9402.250; 1.92412
1023.67;  184.000;   69.750; 9574.250; 1.92007
1027.82;  169.000;   61.750; 9729.250; 1.95492
1031.97;  164.000;   55.750; 9851.250; 1.95660
1036.12;  167.000;   49.750;10022.250; 1.92969
1040.27;  176.000;   61.750;10174.250; 1.94700
1044.41;  176.000;   73.750;10320.250; 2.00091
1048.56;  184.000;   53.750;10468.250; 1.90286
1052.70;  176.000;   58.750;10629.250; 1.95498
1056.84;  193.000;   47.750;10798.250; 1.86931
1060.98;  182.000;   67.750;10996.250; 1.98070
1065.11;  200.000;   63.750;11181.250; 1.91167
1069.25;  186.000;   63.750;11391.250; 1.96689
1073.38;  184.000;   56.750;11632.250; 1.95888
1077.52;  212.000;   70.750;11862.250; 1.92158
1081.65;  199.000;   62.750;12105.250; 1.94638
1085.77;  196.000;   60.750;12352.250; 1.95847
1089.90;  213.000;   56.750;12603.250; 1.90470
1094.03;  198.000;   65.750;12857.250; 1.98553
1098.15;  228.000;   68.750;13146.250; 1.91445
1102.27;  207.000;   66.750;13436.250; 1.97921
1106.39;  220.000;   69.750;13733.250; 1.95875
1110.51;  228.000;   69.750;14055.250; 1.94633
1114.63;  227.000;   49.750;14464.250; 1.91021
1118.74;  208.000;   73.750;14874.250; 2.04236
1122.85;  223.000;   70.750;15167.250; 1.99632
1126.96;  220.000;   61.750;15350.250; 1.98502
1131.07;  218.000;   57.750;15457.250; 1.98271
1135.18;  215.000;   63.750;15545.250; 2.01012
1139.29;  204.000;   45.750;15604.250; 1.99262
1143.39;  223.000;   62.750;15613.250; 1.98695
1147.49;  202.000;   71.750;15592.250; 2.07613
1151.59;  201.000;   71.750;15618.250; 2.08020
1155.69;  195.000;   64.750;15618.250; 2.07705
1159.78;  192.000;   61.750;15619.250; 2.07716
1163.88;  201.000;   66.750;15654.250; 2.06486
1167.97;  179.000;   60.750;15657.250; 2.12023
1172.06;  186.000;   60.750;15668.250; 2.09556
1176.15;  171.000;   53.750;15670.250; 2.12447
1180.23;  182.000;   59.750;15679.250; 2.10642
1184.32;  162.000;   50.750;15690.250; 2.14792
1188.40;  187.000;   57.750;15712.250; 2.08321
1192.48;  165.000;   55.750;15725.250; 2.15663
1196.56;  185.000;   53.750;15754.250; 2.07781
1200.64;  191.000;   72.750;15783.250; 2.12339
1204.71;  179.000;   50.750;15806.250; 2.08937
1208.78;  187.000;   69.750;15849.250; 2.12898
1212.85;  184.000;   54.750;15854.250; 2.08721
1216.92;  168.000;   37.750;15840.250; 2.08395
1220.99;  193.000;   49.750;15897.250; 2.04387
1225.05;  183.000;   60.750;15920.250; 2.11304
1229.11;  187.000;   53.750;15924.250; 2.07592
1233.17;  186.000;   58.750;15926.250; 2.09585
1237.23;  186.000;   49.750;15943.250; 2.06688
1241.29;  182.000;   51.750;15960.250; 2.08685
1245.34;  195.000;   79.750;16029.250; 2.14111
1249.39;  185.000;   55.750;16081.250; 2.09338
1253.44;  179.000;   36.750;16122.250; 2.05338
1257.49;  211.000;   73.750;16225.250; 2.07070
1261.53;  193.000;   40.750;16273.250; 2.02783
1265.58;  197.000;   46.750;16338.250; 2.03515
1269.62;  198.000;   46.750;16412.250; 2.03423
1273.65;  187.000;   55.750;16472.250; 2.09718
1277.69;  207.000;   53.750;16552.250; 2.03204
1281.72;  212.000;   65.750;16612.250; 2.05361
1285.76;  192.000;   66.750;16662.250; 2.12221
1289.79;  195.000;   56.750;16697.250; 2.08050
1293.81;  197.000;   44.750;16713.250; 2.03934
1297.84;  185.000;   49.750;16765.250; 2.09198
1301.86;  188.000;   43.750;16807.250; 2.06525
1305.88;  176.000;   58.750;16824.250; 2.15530
1309.90;  197.000;   49.750;16842.250; 2.05706
1313.92;  184.000;   55.750;16828.250; 2.11654
1317.93;  200.000;   65.750;16838.250; 2.09668
1321.94;  172.000;   46.750;16825.250; 2.12698
1325.95;  170.000;   64.750;16797.250; 2.20134
1329.96;  182.000;   63.750;16802.250; 2.15092
1333.96;  162.000;   52.750;16773.250; 2.18483
1337.96;  160.000;   63.750;16776.250; 2.23964
1341.96;  158.000;   46.750;16748.250; 2.17646
1345.96;  155.000;   59.750;16622.250; 2.24026
1349.95;  147.000;   42.750;16410.250; 2.19591
1353.95;  149.000;   67.750;16154.250; 2.29664
1357.94;  146.000;   50.750;15843.250; 2.21959
1361.92;  145.000;   50.750;15571.250; 2.21662
1365.91;  133.000;   46.750;15308.250; 2.24784
1369.89;  137.000;   50.750;15042.250; 2.24009
1373.87;  120.000;   48.750;14460.250; 2.30592
1377.85;  127.000;   60.750;13607.250; 2.31064
1381.82;  106.000;   48.750;12795.250; 2.34762
1385.80;   94.000;   50.750;12441.250; 2.45710
1389.77;   92.000;   54.750;12376.250; 2.51954
1393.74;   94.000;   63.750;12523.250; 2.61478
1397.70;   99.000;   57.750;12861.250; 2.49190
1401.66;   95.000;   57.750;13177.250; 2.54679
1405.62;   87.000;   34.750;13448.250; 2.40946
1409.58;   90.000;   50.750;13653.250; 2.53978
1413.54;   85.000;   50.750;13787.250; 2.60322
1417.49;   85.000;   27.750;13838.250; 2.38243
1421.44;   97.000;   63.750;13894.250; 2.61905
1425.39;   93.000;   54.750;13879.250; 2.55802
1429.33;   95.000;   64.750;13864.250; 2.65914
1433.27;   94.000;   54.750;13809.250; 2.54461
1437.21;   80.000;   48.750;13776.250; 2.64274
1441.15;  108.000;   52.750;13748.250; 2.39425
1445.09;   86.000;   60.750;13691.250; 2.73225
1449.02;   81.000;   57.750;13611.250; 2.76563
1452.95;   91.000;   52.750;13536.250; 2.54717
1456.87;   76.000;   53.750;13439.250; 2.77930
1460.80;   82.000;   43.750;13345.250; 2.54127
1464.72;   73.000;   59.750;13253.250; 2.99814
1468.64;   80.000;   43.750;13131.250; 2.55755
1472.55;   97.000;   63.750;13051.250; 2.59173
1476.47;  100.000;   43.750;12969.250; 2.36132
1480.38;   91.000;   38.750;12870.250; 2.39019
1484.28;  102.000;   54.750;12750.250; 2.42925
1488.19;   84.000;   50.750;12663.250; 2.57901
1492.09;   78.000;   28.750;12533.250; 2.40466
1495.99;   82.000;   58.750;12434.250; 2.72614
1499.89;   97.000;   46.750;12320.250; 2.38783
1503.78;   77.000;   48.750;12228.250; 2.63461
1507.67;   92.000;   52.750;12113.250; 2.48753
1511.56;   91.000;   33.750;11982.250; 2.31954
1515.44;   93.000;   50.750;11884.250; 2.44729
1519.33;   88.000;   48.750;11757.250; 2.47466
1523.21;   94.000;   35.750;11649.250; 2.29967
1527.08;   88.000;   57.750;11506.250; 2.57802
1530.96;   83.000;   39.750;11368.250; 2.41819
1534.83;  102.000;   52.750;11249.250; 2.35668
1538.70;   96.000;   57.750;11082.250; 2.45973
1542.56;   81.000;   28.750;10958.250; 2.32051
1546.42;   84.000;   39.750;10836.250; 2.38737
1550.28;   85.000;   58.750;10683.250; 2.60718
1554.14;   83.000;   39.750;10510.250; 2.38398
1557.99;   80.000;   41.750;10388.250; 2.43216
1561.84;   82.000;   33.750;10234.250; 2.32512
1565.69;   84.000;   40.750;10095.250; 2.36637
1569.54;   76.000;   24.750; 9939.250; 2.28658
1573.38;   87.000;   40.750; 9804.250; 2.32449
1577.22;   86.000;   31.750; 9649.250; 2.24866
1581.05;   91.000;   49.750; 9522.250; 2.36104
1584.89;   90.000;   45.750; 9369.250; 2.32367
1588.72;   76.000;   41.750; 9215.250; 2.42787
1592.54;   81.000;   35.750; 9061.250; 2.29985
1596.37;   73.000;   22.750; 8908.250; 2.24755
1600.19;   95.000;   43.750; 8774.250; 2.23135
1604.01;   71.000;   33.750; 8610.250; 2.36218
1607.82;   82.000;   31.750; 8473.250; 2.22528
1611.63;   58.000;   22.750; 8316.250; 2.37158
1615.44;   88.000;   26.750; 8167.250; 2.12354
1619.25;   59.000;   34.750; 7998.250; 2.51639
1623.05;   63.000;   13.750; 7822.250; 2.20016
1626.85;   65.000;   26.750; 7668.250; 2.30055
1630.64;   73.000;   42.750; 7511.250; 2.39251
1634.44;   70.000;   26.750; 7307.250; 2.22618
1638.23;   61.000;   18.750; 7114.250; 2.22516
1642.01;   59.000;   39.750; 6938.250; 2.55432
1645.80;   76.000;   42.750; 6743.250; 2.30432
1649.58;   56.000;   38.750; 6531.250; 2.57562
1653.35;   79.000;   44.750; 6309.250; 2.26223
1657.13;   54.000;   36.750; 6064.250; 2.54335
1660.90;   53.000;   34.750; 5808.250; 2.50018
1664.67;   48.000;   28.750; 5491.250; 2.45296
1668.43;   74.000;   24.750; 5119.250; 2.01470
1672.19;   61.000;   35.750; 4656.250; 2.26243
1675.95;   57.000;   31.750; 4113.250; 2.20856
1679.70;   56.000;   46.750; 3563.250; 2.57997
1683.46;   48.000;   23.750; 3047.250; 2.09580
1687.20;   49.000;   39.750; 2617.250; 2.44506
1690.95;   52.000;   36.750; 2243.250; 2.16043
1694.69;   54.000;   56.750; 1964.250; 5.00000
1698.43;   48.000;   22.750; 1699.250; 1.82214
1702.16;   38.000;   44.750; 1533.250; 5.00000
1705.89;   34.000;   30.750; 1372.250; 2.61571
1709.62;   34.000;   25.750; 1277.250; 2.18098
1713.35;   49.000;   17.750; 1187.250; 1.57315
1717.07;   34.000;   42.750; 1123.250; 5.00000
1720.79;   47.000;   41.750; 1064.250; 2.28950
1724.50;   57.000;   44.750; 1019.250; 1.90065
1728.21;   41.000;   29.750;  974.250; 1.92405
1731.92;   30.000;   25.750;  931.250; 2.32850
1735.63;   35.000;   34.750;  925.250; 3.55169
1739.33;   45.000;   23.750;  909.250; 1.61983
1743.02;   38.000;   21.750;  865.250; 1.71523
1746.72;   32.000;   33.750;  872.250; 5.00000
1750.41;   55.000;   37.750;  865.250; 1.68098
1754.10;   43.000;   44.750;  846.250; 5.00000

