
Integration time [ms]:   3.780
Averaging Nr. [scans]: 1
Smoothing Nr. [pixels]: 0
Data measured with spectrometer [name]: 1911294U1
Wave   ;Sample   ;Dark     ;Reference;Absorbance
[nm]   ;[counts] ;[counts] ;[counts] ;[A.U]

 860.61;  119.000;   67.750;  833.250; 1.17425
 864.82;  124.000;   49.750;  998.250; 1.10634
 869.02;  145.000;   59.750; 1169.250; 1.11443
 873.23;  154.000;   54.750; 1288.250; 1.09441
 877.43;  161.000;   53.750; 1415.250; 1.10362
 881.63;  163.000;   54.750; 1540.250; 1.13744
 885.83;  173.000;   49.750; 1684.250; 1.12260
 890.03;  170.000;   28.750; 1796.250; 1.09737
 894.23;  196.000;   40.750; 1929.250; 1.08509
 898.42;  198.000;   37.750; 2071.250; 1.10345
 902.62;  217.000;   56.750; 2213.250; 1.12895
 906.81;  230.000;   35.750; 2337.250; 1.07365
 911.00;  240.000;   53.750; 2523.250; 1.12251
 915.19;  271.000;   45.750; 2712.250; 1.07328
 919.38;  276.000;   47.750; 2963.250; 1.10630
 923.57;  310.000;   53.750; 3292.250; 1.10168
 927.76;  352.000;   40.750; 3728.250; 1.07362
 931.94;  375.000;   39.750; 4163.250; 1.08990
 936.13;  407.000;   53.750; 4579.250; 1.10758
 940.31;  421.000;   50.750; 4873.250; 1.11478
 944.49;  460.000;   63.750; 5167.250; 1.10990
 948.67;  483.000;   49.750; 5411.250; 1.09255
 952.85;  477.000;   50.750; 5679.250; 1.12073
 957.03;  511.000;   47.750; 5965.250; 1.10632
 961.21;  544.000;   58.750; 6236.250; 1.10485
 965.38;  547.000;   44.750; 6471.250; 1.10705
 969.55;  543.000;   37.750; 6719.250; 1.12137
 973.73;  588.000;   56.750; 6971.250; 1.11446
 977.90;  589.000;   42.750; 7222.250; 1.11870
 982.06;  621.000;   44.750; 7469.250; 1.11006
 986.23;  633.000;   51.750; 7739.250; 1.12142
 990.40;  665.000;   61.750; 7985.250; 1.11842
 994.56;  669.000;   65.750; 8243.250; 1.13212
 998.72;  692.000;   58.750; 8450.250; 1.12226
1002.88;  700.000;   57.750; 8670.250; 1.12743
1007.04;  728.000;   52.750; 8879.250; 1.11632
1011.20;  724.000;   49.750; 9068.250; 1.12631
1015.36;  748.000;   45.750; 9257.250; 1.11784
1019.51;  773.000;   60.750; 9402.250; 1.11778
1023.67;  773.000;   69.750; 9574.250; 1.13082
1027.82;  799.000;   61.750; 9729.250; 1.11770
1031.97;  799.000;   55.750; 9851.250; 1.11989
1036.12;  821.000;   49.750;10022.250; 1.11161
1040.27;  822.000;   61.750;10174.250; 1.12390
1044.41;  842.000;   73.750;10320.250; 1.12507
1048.56;  861.000;   53.750;10468.250; 1.11063
1052.70;  861.000;   58.750;10629.250; 1.11979
1056.84;  864.000;   47.750;10798.250; 1.11961
1060.98;  890.000;   67.750;10996.250; 1.12356
1065.11;  906.000;   63.750;11181.250; 1.12057
1069.25;  912.000;   63.750;11391.250; 1.12561
1073.38;  952.000;   56.750;11632.250; 1.11160
1077.52;  951.000;   70.750;11862.250; 1.12696
1081.65;  966.000;   62.750;12105.250; 1.12491
1085.77;  970.000;   60.750;12352.250; 1.13092
1089.90;  991.000;   56.750;12603.250; 1.12806
1094.03; 1011.000;   65.750;12857.250; 1.13137
1098.15; 1043.000;   68.750;13146.250; 1.12785
1102.27; 1042.000;   66.750;13436.250; 1.13700
1106.39; 1086.000;   69.750;13733.250; 1.12856
1110.51; 1107.000;   69.750;14055.250; 1.12979
1114.63; 1123.000;   49.750;14464.250; 1.12810
1118.74; 1145.000;   73.750;14874.250; 1.14039
1122.85; 1172.000;   70.750;15167.250; 1.13699
1126.96; 1158.000;   61.750;15350.250; 1.14446
1131.07; 1167.000;   57.750;15457.250; 1.14248
1135.18; 1151.000;   63.750;15545.250; 1.15348
1139.29; 1134.000;   45.750;15604.250; 1.15524
1143.39; 1109.000;   62.750;15613.250; 1.17211
1147.49; 1092.000;   71.750;15592.250; 1.18220
1151.59; 1073.000;   71.750;15618.250; 1.19109
1155.69; 1057.000;   64.750;15618.250; 1.19521
1159.78; 1034.000;   61.750;15619.250; 1.20416
1163.88; 1036.000;   66.750;15654.250; 1.20634
1167.97; 1019.000;   60.750;15657.250; 1.21155
1172.06; 1012.000;   60.750;15668.250; 1.21504
1176.15;  984.000;   53.750;15670.250; 1.22498
1180.23;  998.000;   59.750;15679.250; 1.22135
1184.32;  983.000;   50.750;15690.250; 1.22469
1188.40; 1007.000;   57.750;15712.250; 1.21726
1192.48;  987.000;   55.750;15725.250; 1.22599
1196.56;  991.000;   53.750;15754.250; 1.22406
1200.64;  998.000;   72.750;15783.250; 1.22993
1204.71;  995.000;   50.750;15806.250; 1.22235
1208.78; 1017.000;   69.750;15849.250; 1.22163
1212.85; 1009.000;   54.750;15854.250; 1.21898
1216.92;  979.000;   37.750;15840.250; 1.22502
1220.99; 1012.000;   49.750;15897.250; 1.21667
1225.05; 1021.000;   60.750;15920.250; 1.21791
1229.11; 1022.000;   53.750;15924.250; 1.21460
1233.17; 1016.000;   58.750;15926.250; 1.21948
1237.23; 1029.000;   49.750;15943.250; 1.21033
1241.29; 1013.000;   51.750;15960.250; 1.21879
1245.34; 1042.000;   79.750;16029.250; 1.21946
1249.39; 1032.000;   55.750;16081.250; 1.21525
1253.44; 1027.000;   36.750;16122.250; 1.21069
1257.49; 1052.000;   73.750;16225.250; 1.21776
1261.53; 1060.000;   40.750;16273.250; 1.20210
1265.58; 1050.000;   46.750;16338.250; 1.21055
1269.62; 1039.000;   46.750;16412.250; 1.21731
1273.65; 1041.000;   55.750;16472.250; 1.22173
1277.69; 1061.000;   53.750;16552.250; 1.21431
1281.72; 1063.000;   65.750;16612.250; 1.21990
1285.76; 1062.000;   66.750;16662.250; 1.22206
1289.79; 1055.000;   56.750;16697.250; 1.22193
1293.81; 1046.000;   44.750;16713.250; 1.22135
1297.84; 1028.000;   49.750;16765.250; 1.23267
1301.86; 1041.000;   43.750;16807.250; 1.22556
1305.88; 1026.000;   58.750;16824.250; 1.23888
1309.90; 1027.000;   49.750;16842.250; 1.23511
1313.92;  994.000;   55.750;16828.250; 1.25228
1317.93; 1023.000;   65.750;16838.250; 1.24357
1321.94;  974.000;   46.750;16825.250; 1.25756
1325.95;  954.000;   64.750;16797.250; 1.27454
1329.96;  953.000;   63.750;16802.250; 1.27469
1333.96;  928.000;   52.750;16773.250; 1.28112
1337.96;  887.000;   63.750;16776.250; 1.30751
1341.96;  868.000;   46.750;16748.250; 1.30828
1345.96;  860.000;   59.750;16622.250; 1.31590
1349.95;  834.000;   42.750;16410.250; 1.31567
1353.95;  807.000;   67.750;16154.250; 1.33767
1357.94;  761.000;   50.750;15843.250; 1.34704
1361.92;  755.000;   50.750;15571.250; 1.34318
1365.91;  713.000;   46.750;15308.250; 1.35996
1369.89;  674.000;   50.750;15042.250; 1.38118
1373.87;  641.000;   48.750;14460.250; 1.38620
1377.85;  572.000;   60.750;13607.250; 1.42319
1381.82;  507.000;   48.750;12795.250; 1.44429
1385.80;  456.000;   50.750;12441.250; 1.48537
1389.77;  400.000;   54.750;12376.250; 1.55253
1393.74;  362.000;   63.750;12523.250; 1.62092
1397.70;  337.000;   57.750;12861.250; 1.66134
1401.66;  285.000;   57.750;13177.250; 1.76141
1405.62;  271.000;   34.750;13448.250; 1.75417
1409.58;  247.000;   50.750;13653.250; 1.84081
1413.54;  222.000;   50.750;13787.250; 1.90425
1417.49;  188.000;   27.750;13838.250; 1.93541
1421.44;  216.000;   63.750;13894.250; 1.95828
1425.39;  187.000;   54.750;13879.250; 2.01925
1429.33;  195.000;   64.750;13864.250; 2.02509
1433.27;  186.000;   54.750;13809.250; 2.02035
1437.21;  171.000;   48.750;13776.250; 2.05034
1441.15;  173.000;   52.750;13748.250; 2.05649
1445.09;  175.000;   60.750;13691.250; 2.07666
1449.02;  179.000;   57.750;13611.250; 2.04837
1452.95;  176.000;   52.750;13536.250; 2.03902
1456.87;  153.000;   53.750;13439.250; 2.12990
1460.80;  156.000;   43.750;13345.250; 2.07371
1464.72;  171.000;   59.750;13253.250; 2.07406
1468.64;  159.000;   43.750;13131.250; 2.05522
1472.55;  175.000;   63.750;13051.250; 2.06723
1476.47;  162.000;   43.750;12969.250; 2.03865
1480.38;  179.000;   38.750;12870.250; 1.96137
1484.28;  179.000;   54.750;12750.250; 2.00935
1488.19;  171.000;   50.750;12663.250; 2.02072
1492.09;  167.000;   28.750;12533.250; 1.95640
1495.99;  172.000;   58.750;12434.250; 2.03852
1499.89;  177.000;   46.750;12320.250; 1.97419
1503.78;  177.000;   48.750;12228.250; 1.97757
1507.67;  185.000;   52.750;12113.250; 1.95997
1511.56;  167.000;   33.750;11982.250; 1.95265
1515.44;  185.000;   50.750;11884.250; 1.94520
1519.33;  192.000;   48.750;11757.250; 1.91241
1523.21;  202.000;   35.750;11649.250; 1.84420
1527.08;  204.000;   57.750;11506.250; 1.89365
1530.96;  191.000;   39.750;11368.250; 1.87448
1534.83;  226.000;   52.750;11249.250; 1.81041
1538.70;  211.000;   57.750;11082.250; 1.85696
1542.56;  216.000;   28.750;10958.250; 1.76618
1546.42;  221.000;   39.750;10836.250; 1.77500
1550.28;  237.000;   58.750;10683.250; 1.77528
1554.14;  220.000;   39.750;10510.250; 1.76409
1557.99;  217.000;   41.750;10388.250; 1.77114
1561.84;  231.000;   33.750;10234.250; 1.71360
1565.69;  218.000;   40.750;10095.250; 1.75377
1569.54;  226.000;   24.750; 9939.250; 1.69253
1573.38;  231.000;   40.750; 9804.250; 1.71028
1577.22;  234.000;   31.750; 9649.250; 1.67717
1581.05;  229.000;   49.750; 9522.250; 1.72301
1584.89;  244.000;   45.750; 9369.250; 1.67237
1588.72;  240.000;   41.750; 9215.250; 1.66532
1592.54;  231.000;   35.750; 9061.250; 1.66488
1596.37;  228.000;   22.750; 8908.250; 1.63640
1600.19;  238.000;   43.750; 8774.250; 1.65268
1604.01;  231.000;   33.750; 8610.250; 1.63829
1607.82;  231.000;   31.750; 8473.250; 1.62702
1611.63;  215.000;   22.750; 8316.250; 1.63487
1615.44;  229.000;   26.750; 8167.250; 1.60476
1619.25;  214.000;   34.750; 7998.250; 1.64764
1623.05;  217.000;   13.750; 7822.250; 1.58454
1626.85;  221.000;   26.750; 7668.250; 1.59482
1630.64;  237.000;   42.750; 7511.250; 1.58487
1634.44;  220.000;   26.750; 7307.250; 1.57604
1638.23;  214.000;   18.750; 7114.250; 1.56039
1642.01;  206.000;   39.750; 6938.250; 1.61799
1645.80;  228.000;   42.750; 6743.250; 1.55835
1649.58;  204.000;   38.750; 6531.250; 1.59427
1653.35;  201.000;   44.750; 6309.250; 1.60307
1657.13;  182.000;   36.750; 6064.250; 1.61802
1660.90;  202.000;   34.750; 5808.250; 1.53807
1664.67;  177.000;   28.750; 5491.250; 1.56640
1668.43;  181.000;   24.750; 5119.250; 1.51328
1672.19;  164.000;   35.750; 4656.250; 1.55663
1675.95;  144.000;   31.750; 4113.250; 1.56063
1679.70;  110.000;   46.750; 3563.250; 1.74505
1683.46;  112.000;   23.750; 3047.250; 1.53480
1687.20;  118.000;   39.750; 2617.250; 1.51771
1690.95;  109.000;   36.750; 2243.250; 1.48487
1694.69;  103.000;   56.750; 1964.250; 1.61535
1698.43;   96.000;   22.750; 1699.250; 1.35960
1702.16;   91.000;   44.750; 1533.250; 1.50764
1705.89;   88.000;   30.750; 1372.250; 1.36982
1709.62;   86.000;   25.750; 1277.250; 1.31747
1713.35;   81.000;   17.750; 1187.250; 1.26694
1717.07;   83.000;   42.750; 1123.250; 1.42886
1720.79;   85.000;   41.750; 1064.250; 1.37368
1724.50;   89.000;   44.750; 1019.250; 1.34287
1728.21;   90.000;   29.750;  974.250; 1.19524
1731.92;   84.000;   25.750;  931.250; 1.19159
1735.63;   85.000;   34.750;  925.250; 1.24850
1739.33;  108.000;   23.750;  909.250; 1.02162
1743.02;   92.000;   21.750;  865.250; 1.07944
1746.72;   90.000;   33.750;  872.250; 1.17338
1750.41;   85.000;   37.750;  865.250; 1.24337
1754.10;   88.000;   44.750;  846.250; 1.26792

