
Integration time [ms]:   3.780
Averaging Nr. [scans]: 1
Smoothing Nr. [pixels]: 0
Data measured with spectrometer [name]: 1911294U1
Wave   ;Sample   ;Dark     ;Reference;Absorbance
[nm]   ;[counts] ;[counts] ;[counts] ;[A.U]

 860.61;   53.750;   67.750;  833.250; 5.00000
 864.82;   58.750;   49.750;  998.250; 2.02279
 869.02;   48.750;   59.750; 1169.250; 5.00000
 873.23;   52.750;   54.750; 1288.250; 5.00000
 877.43;   41.750;   53.750; 1415.250; 5.00000
 881.63;   46.750;   54.750; 1540.250; 5.00000
 885.83;   50.750;   49.750; 1684.250; 3.21338
 890.03;   55.750;   28.750; 1796.250; 1.81600
 894.23;   43.750;   40.750; 1929.250; 2.79900
 898.42;   42.750;   37.750; 2071.250; 2.60927
 902.62;   52.750;   56.750; 2213.250; 5.00000
 906.81;   34.750;   35.750; 2337.250; 5.00000
 911.00;   45.750;   53.750; 2523.250; 5.00000
 915.19;   39.750;   45.750; 2712.250; 5.00000
 919.38;   54.750;   47.750; 2963.250; 2.61962
 923.57;   55.750;   53.750; 3292.250; 3.20931
 927.76;   38.750;   40.750; 3728.250; 5.00000
 931.94;   58.750;   39.750; 4163.250; 2.33651
 936.13;   33.750;   53.750; 4579.250; 5.00000
 940.31;   48.750;   50.750; 4873.250; 5.00000
 944.49;   59.750;   63.750; 5167.250; 5.00000
 948.67;   52.750;   49.750; 5411.250; 3.25217
 952.85;   38.750;   50.750; 5679.250; 5.00000
 957.03;   50.750;   47.750; 5965.250; 3.29502
 961.21;   57.750;   58.750; 6236.250; 5.00000
 965.38;   51.750;   44.750; 6471.250; 2.96288
 969.55;   41.750;   37.750; 6719.250; 3.22281
 973.73;   56.750;   56.750; 6971.250; 5.00000
 977.90;   48.750;   42.750; 7222.250; 3.07794
 982.06;   56.750;   44.750; 7469.250; 2.79149
 986.23;   47.750;   51.750; 7739.250; 5.00000
 990.40;   74.750;   61.750; 7985.250; 2.78497
 994.56;   61.750;   65.750; 8243.250; 5.00000
 998.72;   55.750;   58.750; 8450.250; 5.00000
1002.88;   49.750;   57.750; 8670.250; 5.00000
1007.04;   57.750;   52.750; 8879.250; 3.24682
1011.20;   62.750;   49.750; 9068.250; 2.84119
1015.36;   44.750;   45.750; 9257.250; 5.00000
1019.51;   43.750;   60.750; 9402.250; 5.00000
1023.67;   70.750;   69.750; 9574.250; 3.97793
1027.82;   60.750;   61.750; 9729.250; 5.00000
1031.97;   52.750;   55.750; 9851.250; 5.00000
1036.12;   47.750;   49.750;10022.250; 5.00000
1040.27;   71.750;   61.750;10174.250; 3.00486
1044.41;   68.750;   73.750;10320.250; 5.00000
1048.56;   51.750;   53.750;10468.250; 5.00000
1052.70;   59.750;   58.750;10629.250; 4.02410
1056.84;   55.750;   47.750;10798.250; 3.12834
1060.98;   53.750;   67.750;10996.250; 5.00000
1065.11;   71.750;   63.750;11181.250; 3.14292
1069.25;   57.750;   63.750;11391.250; 5.00000
1073.38;   63.750;   56.750;11632.250; 3.21844
1077.52;   61.750;   70.750;11862.250; 5.00000
1081.65;   64.750;   62.750;12105.250; 3.77969
1085.77;   63.750;   60.750;12352.250; 3.61248
1089.90;   58.750;   56.750;12603.250; 3.79749
1094.03;   37.750;   65.750;12857.250; 5.00000
1098.15;   54.750;   68.750;13146.250; 5.00000
1102.27;   55.750;   66.750;13436.250; 5.00000
1106.39;   59.750;   69.750;13733.250; 5.00000
1110.51;   48.750;   69.750;14055.250; 5.00000
1114.63;   50.750;   49.750;14464.250; 4.15880
1118.74;   50.750;   73.750;14874.250; 5.00000
1122.85;   69.750;   70.750;15167.250; 5.00000
1126.96;   51.750;   61.750;15350.250; 5.00000
1131.07;   65.750;   57.750;15457.250; 3.28442
1135.18;   50.750;   63.750;15545.250; 5.00000
1139.29;   50.750;   45.750;15604.250; 3.49300
1143.39;   62.750;   62.750;15613.250; 5.00000
1147.49;   53.750;   71.750;15592.250; 5.00000
1151.59;   48.750;   71.750;15618.250; 5.00000
1155.69;   62.750;   64.750;15618.250; 5.00000
1159.78;   56.750;   61.750;15619.250; 5.00000
1163.88;   84.750;   66.750;15654.250; 2.93750
1167.97;   56.750;   60.750;15657.250; 5.00000
1172.06;   59.750;   60.750;15668.250; 5.00000
1176.15;   38.750;   53.750;15670.250; 5.00000
1180.23;   57.750;   59.750;15679.250; 5.00000
1184.32;   43.750;   50.750;15690.250; 5.00000
1188.40;   43.750;   57.750;15712.250; 5.00000
1192.48;   55.750;   55.750;15725.250; 5.00000
1196.56;   60.750;   53.750;15754.250; 3.35082
1200.64;   64.750;   72.750;15783.250; 5.00000
1204.71;   43.750;   50.750;15806.250; 5.00000
1208.78;   71.750;   69.750;15849.250; 3.89706
1212.85;   55.750;   54.750;15854.250; 4.19864
1216.92;   27.750;   37.750;15840.250; 5.00000
1220.99;   57.750;   49.750;15897.250; 3.29687
1225.05;   53.750;   60.750;15920.250; 5.00000
1229.11;   55.750;   53.750;15924.250; 3.89956
1233.17;   57.750;   58.750;15926.250; 5.00000
1237.23;   49.750;   49.750;15943.250; 5.00000
1241.29;   44.750;   51.750;15960.250; 5.00000
1245.34;   74.750;   79.750;16029.250; 5.00000
1249.39;   51.750;   55.750;16081.250; 5.00000
1253.44;   38.750;   36.750;16122.250; 3.90540
1257.49;   48.750;   73.750;16225.250; 5.00000
1261.53;   69.750;   40.750;16273.250; 2.74799
1265.58;   52.750;   46.750;16338.250; 3.43381
1269.62;   43.750;   46.750;16412.250; 5.00000
1273.65;   50.750;   55.750;16472.250; 5.00000
1277.69;   51.750;   53.750;16552.250; 5.00000
1281.72;   60.750;   65.750;16612.250; 5.00000
1285.76;   57.750;   66.750;16662.250; 5.00000
1289.79;   65.750;   56.750;16697.250; 3.26692
1293.81;   46.750;   44.750;16713.250; 3.92087
1297.84;   49.750;   49.750;16765.250; 5.00000
1301.86;   65.750;   43.750;16807.250; 2.88194
1305.88;   54.750;   58.750;16824.250; 5.00000
1309.90;   56.750;   49.750;16842.250; 3.38002
1313.92;   52.750;   55.750;16828.250; 5.00000
1317.93;   58.750;   65.750;16838.250; 5.00000
1321.94;   46.750;   46.750;16825.250; 5.00000
1325.95;   70.750;   64.750;16797.250; 3.44541
1329.96;   65.750;   63.750;16802.250; 3.92269
1333.96;   49.750;   52.750;16773.250; 5.00000
1337.96;   56.750;   63.750;16776.250; 5.00000
1341.96;   48.750;   46.750;16748.250; 3.92173
1345.96;   48.750;   59.750;16622.250; 5.00000
1349.95;   52.750;   42.750;16410.250; 3.21398
1353.95;   64.750;   67.750;16154.250; 5.00000
1357.94;   53.750;   50.750;15843.250; 3.72133
1361.92;   49.750;   50.750;15571.250; 5.00000
1365.91;   41.750;   46.750;15308.250; 5.00000
1369.89;   49.750;   50.750;15042.250; 5.00000
1373.87;   53.750;   48.750;14460.250; 3.45974
1377.85;   60.750;   60.750;13607.250; 5.00000
1381.82;   36.750;   48.750;12795.250; 5.00000
1385.80;   58.750;   50.750;12441.250; 3.19000
1389.77;   62.750;   54.750;12376.250; 3.18757
1393.74;   50.750;   63.750;12523.250; 5.00000
1397.70;   51.750;   57.750;12861.250; 5.00000
1401.66;   47.750;   57.750;13177.250; 5.00000
1405.62;   62.750;   34.750;13448.250; 2.68038
1409.58;   56.750;   50.750;13653.250; 3.35547
1413.54;   40.750;   50.750;13787.250; 5.00000
1417.49;   21.750;   27.750;13838.250; 5.00000
1421.44;   57.750;   63.750;13894.250; 5.00000
1425.39;   44.750;   54.750;13879.250; 5.00000
1429.33;   75.750;   64.750;13864.250; 3.09847
1433.27;   43.750;   54.750;13809.250; 5.00000
1437.21;   46.750;   48.750;13776.250; 5.00000
1441.15;   54.750;   52.750;13748.250; 3.83555
1445.09;   59.750;   60.750;13691.250; 5.00000
1449.02;   47.750;   57.750;13611.250; 5.00000
1452.95;   43.750;   52.750;13536.250; 5.00000
1456.87;   42.750;   53.750;13439.250; 5.00000
1460.80;   46.750;   43.750;13345.250; 3.64678
1464.72;   55.750;   59.750;13253.250; 5.00000
1468.64;   43.750;   43.750;13131.250; 5.00000
1472.55;   41.750;   63.750;13051.250; 5.00000
1476.47;   44.750;   43.750;12969.250; 4.11145
1480.38;   60.750;   38.750;12870.250; 2.76585
1484.28;   51.750;   54.750;12750.250; 5.00000
1488.19;   43.750;   50.750;12663.250; 5.00000
1492.09;   26.750;   28.750;12533.250; 5.00000
1495.99;   29.750;   58.750;12434.250; 5.00000
1499.89;   49.750;   46.750;12320.250; 3.61185
1503.78;   37.750;   48.750;12228.250; 5.00000
1507.67;   51.750;   52.750;12113.250; 5.00000
1511.56;   14.750;   33.750;11982.250; 5.00000
1515.44;   44.750;   50.750;11884.250; 5.00000
1519.33;   52.750;   48.750;11757.250; 3.46644
1523.21;   44.750;   35.750;11649.250; 3.11072
1527.08;   43.750;   57.750;11506.250; 5.00000
1530.96;   42.750;   39.750;11368.250; 3.57705
1534.83;   51.750;   52.750;11249.250; 5.00000
1538.70;   51.750;   57.750;11082.250; 5.00000
1542.56;   27.750;   28.750;10958.250; 5.00000
1546.42;   51.750;   39.750;10836.250; 2.95410
1550.28;   42.750;   58.750;10683.250; 5.00000
1554.14;   31.750;   39.750;10510.250; 5.00000
1557.99;   49.750;   41.750;10388.250; 3.11170
1561.84;   45.750;   33.750;10234.250; 2.92944
1565.69;   33.750;   40.750;10095.250; 5.00000
1569.54;   24.750;   24.750; 9939.250; 5.00000
1573.38;   49.750;   40.750; 9804.250; 3.03536
1577.22;   48.750;   31.750; 9649.250; 2.75261
1581.05;   24.750;   49.750; 9522.250; 5.00000
1584.89;   60.750;   45.750; 9369.250; 2.79349
1588.72;   41.750;   41.750; 9215.250; 5.00000
1592.54;   48.750;   35.750; 9061.250; 2.84153
1596.37;   29.750;   22.750; 8908.250; 3.10358
1600.19;   47.750;   43.750; 8774.250; 3.33898
1604.01;   41.750;   33.750; 8610.250; 3.03022
1607.82;   32.750;   31.750; 8473.250; 3.92642
1611.63;   37.750;   22.750; 8316.250; 2.74265
1615.44;   56.750;   26.750; 8167.250; 2.43353
1619.25;   29.750;   34.750; 7998.250; 5.00000
1623.05;   18.750;   13.750; 7822.250; 3.19360
1626.85;   27.750;   26.750; 7668.250; 3.88318
1630.64;   46.750;   42.750; 7511.250; 3.27117
1634.44;   31.750;   26.750; 7307.250; 3.16319
1638.23;   14.750;   18.750; 7114.250; 5.00000
1642.01;   32.750;   39.750; 6938.250; 5.00000
1645.80;   41.750;   42.750; 6743.250; 5.00000
1649.58;   24.750;   38.750; 6531.250; 5.00000
1653.35;   47.750;   44.750; 6309.250; 3.31977
1657.13;   30.750;   36.750; 6064.250; 5.00000
1660.90;   39.750;   34.750; 5808.250; 3.06247
1664.67;   34.750;   28.750; 5491.250; 2.95924
1668.43;   47.750;   24.750; 5119.250; 2.34537
1672.19;   35.750;   35.750; 4656.250; 5.00000
1675.95;   34.750;   31.750; 4113.250; 3.13370
1679.70;   39.750;   46.750; 3563.250; 5.00000
1683.46;   32.750;   23.750; 3047.250; 2.52627
1687.20;   51.750;   39.750; 2617.250; 2.33202
1690.95;   43.750;   36.750; 2243.250; 2.49861
1694.69;   48.750;   56.750; 1964.250; 5.00000
1698.43;   47.750;   22.750; 1699.250; 1.82646
1702.16;   35.750;   44.750; 1533.250; 5.00000
1705.89;   37.750;   30.750; 1372.250; 2.28249
1709.62;   17.750;   25.750; 1277.250; 5.00000
1713.35;   33.750;   17.750; 1187.250; 1.86388
1717.07;   43.750;   42.750; 1123.250; 3.03362
1720.79;   39.750;   41.750; 1064.250; 5.00000
1724.50;   40.750;   44.750; 1019.250; 5.00000
1728.21;   32.750;   29.750;  974.250; 2.49808
1731.92;   40.750;   25.750;  931.250; 1.78080
1735.63;   21.750;   34.750;  925.250; 5.00000
1739.33;   29.750;   23.750;  909.250; 2.16904
1743.02;   41.750;   21.750;  865.250; 1.62506
1746.72;   47.750;   33.750;  872.250; 1.77738
1750.41;   43.750;   37.750;  865.250; 2.13962
1754.10;   30.750;   44.750;  846.250; 5.00000

