
Integration time [ms]:   3.780
Averaging Nr. [scans]: 1
Smoothing Nr. [pixels]: 0
Data measured with spectrometer [name]: 1911294U1
Wave   ;Sample   ;Dark     ;Reference;Absorbance
[nm]   ;[counts] ;[counts] ;[counts] ;[A.U]

 860.61;  132.250;   67.750;  833.250; 1.07439
 864.82;  147.250;   49.750;  998.250; 0.98803
 869.02;  161.250;   59.750; 1169.250; 1.03866
 873.23;  160.250;   54.750; 1288.250; 1.06789
 877.43;  178.250;   53.750; 1415.250; 1.03885
 881.63;  197.250;   54.750; 1540.250; 1.01806
 885.83;  206.250;   49.750; 1684.250; 1.01887
 890.03;  191.250;   28.750; 1796.250; 1.03651
 894.23;  213.250;   40.750; 1929.250; 1.03933
 898.42;  226.250;   37.750; 2071.250; 1.03293
 902.62;  239.250;   56.750; 2213.250; 1.07249
 906.81;  254.250;   35.750; 2337.250; 1.02256
 911.00;  264.250;   53.750; 2523.250; 1.06936
 915.19;  287.250;   45.750; 2712.250; 1.04302
 919.38;  318.250;   47.750; 2963.250; 1.03255
 923.57;  342.250;   53.750; 3292.250; 1.05020
 927.76;  386.250;   40.750; 3728.250; 1.02828
 931.94;  433.250;   39.750; 4163.250; 1.02032
 936.13;  456.250;   53.750; 4579.250; 1.05090
 940.31;  476.250;   50.750; 4873.250; 1.05437
 944.49;  528.250;   63.750; 5167.250; 1.04088
 948.67;  530.250;   49.750; 5411.250; 1.04759
 952.85;  537.250;   50.750; 5679.250; 1.06331
 957.03;  577.250;   47.750; 5965.250; 1.04827
 961.21;  595.250;   58.750; 6236.250; 1.06124
 965.38;  593.250;   44.750; 6471.250; 1.06880
 969.55;  608.250;   37.750; 6719.250; 1.06862
 973.73;  649.250;   56.750; 6971.250; 1.06707
 977.90;  659.250;   42.750; 7222.250; 1.06616
 982.06;  688.250;   44.750; 7469.250; 1.06212
 986.23;  701.250;   51.750; 7739.250; 1.07321
 990.40;  729.250;   61.750; 7985.250; 1.07447
 994.56;  765.250;   65.750; 8243.250; 1.06783
 998.72;  778.250;   58.750; 8450.250; 1.06681
1002.88;  791.250;   57.750; 8670.250; 1.06973
1007.04;  805.250;   52.750; 8879.250; 1.06928
1011.20;  833.250;   49.750; 9068.250; 1.06110
1015.36;  851.250;   45.750; 9257.250; 1.05826
1019.51;  852.250;   60.750; 9402.250; 1.07197
1023.67;  882.250;   69.750; 9574.250; 1.06811
1027.82;  887.250;   61.750; 9729.250; 1.06860
1031.97;  903.250;   55.750; 9851.250; 1.06289
1036.12;  916.250;   49.750;10022.250; 1.06104
1040.27;  923.250;   61.750;10174.250; 1.06960
1044.41;  948.250;   73.750;10320.250; 1.06882
1048.56;  952.250;   53.750;10468.250; 1.06412
1052.70;  968.250;   58.750;10629.250; 1.06529
1056.84;  993.250;   47.750;10798.250; 1.05577
1060.98; 1012.250;   67.750;10996.250; 1.06336
1065.11; 1031.250;   63.750;11181.250; 1.06036
1069.25; 1039.250;   63.750;11391.250; 1.06491
1073.38; 1053.250;   56.750;11632.250; 1.06506
1077.52; 1097.250;   70.750;11862.250; 1.06021
1081.65; 1099.250;   62.750;12105.250; 1.06515
1085.77; 1108.250;   60.750;12352.250; 1.06945
1089.90; 1134.250;   56.750;12603.250; 1.06611
1094.03; 1159.250;   65.750;12857.250; 1.06810
1098.15; 1181.250;   68.750;13146.250; 1.07022
1102.27; 1190.250;   66.750;13436.250; 1.07554
1106.39; 1249.250;   69.750;13733.250; 1.06386
1110.51; 1260.250;   69.750;14055.250; 1.06995
1114.63; 1274.250;   49.750;14464.250; 1.07084
1118.74; 1305.250;   73.750;14874.250; 1.07984
1122.85; 1342.250;   70.750;15167.250; 1.07456
1126.96; 1339.250;   61.750;15350.250; 1.07800
1131.07; 1345.250;   57.750;15457.250; 1.07776
1135.18; 1330.250;   63.750;15545.250; 1.08721
1139.29; 1305.250;   45.750;15604.250; 1.09177
1143.39; 1290.250;   62.750;15613.250; 1.10272
1147.49; 1260.250;   71.750;15592.250; 1.11591
1151.59; 1233.250;   71.750;15618.250; 1.12661
1155.69; 1230.250;   64.750;15618.250; 1.12532
1159.78; 1219.250;   61.750;15619.250; 1.12842
1163.88; 1212.250;   66.750;15654.250; 1.13378
1167.97; 1191.250;   60.750;15657.250; 1.13976
1172.06; 1197.250;   60.750;15668.250; 1.13776
1176.15; 1188.250;   53.750;15670.250; 1.13878
1180.23; 1190.250;   59.750;15679.250; 1.14040
1184.32; 1177.250;   50.750;15690.250; 1.14249
1188.40; 1180.250;   57.750;15712.250; 1.14445
1192.48; 1173.250;   55.750;15725.250; 1.14681
1196.56; 1187.250;   53.750;15754.250; 1.14149
1200.64; 1192.250;   72.750;15783.250; 1.14717
1204.71; 1197.250;   50.750;15806.250; 1.13806
1208.78; 1201.250;   69.750;15849.250; 1.14444
1212.85; 1223.250;   54.750;15854.250; 1.13101
1216.92; 1188.250;   37.750;15840.250; 1.13784
1220.99; 1213.250;   49.750;15897.250; 1.13419
1225.05; 1221.250;   60.750;15920.250; 1.13564
1229.11; 1219.250;   53.750;15924.250; 1.13408
1233.17; 1230.250;   58.750;15926.250; 1.13177
1237.23; 1243.250;   49.750;15943.250; 1.12440
1241.29; 1233.250;   51.750;15960.250; 1.12920
1245.34; 1265.250;   79.750;16029.250; 1.12885
1249.39; 1242.250;   55.750;16081.250; 1.13054
1253.44; 1252.250;   36.750;16122.250; 1.12168
1257.49; 1276.250;   73.750;16225.250; 1.12813
1261.53; 1271.250;   40.750;16273.250; 1.12030
1265.58; 1273.250;   46.750;16338.250; 1.12329
1269.62; 1288.250;   46.750;16412.250; 1.11998
1273.65; 1293.250;   55.750;16472.250; 1.12274
1277.69; 1297.250;   53.750;16552.250; 1.12280
1281.72; 1286.250;   65.750;16612.250; 1.13217
1285.76; 1299.250;   66.750;16662.250; 1.12920
1289.79; 1281.250;   56.750;16697.250; 1.13321
1293.81; 1281.250;   44.750;16713.250; 1.12970
1297.84; 1275.250;   49.750;16765.250; 1.13481
1301.86; 1282.250;   43.750;16807.250; 1.13147
1305.88; 1268.250;   58.750;16824.250; 1.14181
1309.90; 1257.250;   49.750;16842.250; 1.14323
1313.92; 1243.250;   55.750;16828.250; 1.14996
1317.93; 1238.250;   65.750;16838.250; 1.15548
1321.94; 1198.250;   46.750;16825.250; 1.16349
1325.95; 1191.250;   64.750;16797.250; 1.17183
1329.96; 1159.250;   63.750;16802.250; 1.18410
1333.96; 1134.250;   52.750;16773.250; 1.18922
1337.96; 1108.250;   63.750;16776.250; 1.20413
1341.96; 1076.250;   46.750;16748.250; 1.21013
1345.96; 1056.250;   59.750;16622.250; 1.22065
1349.95; 1024.250;   42.750;16410.250; 1.22209
1353.95;  988.250;   67.750;16154.250; 1.24244
1357.94;  941.250;   50.750;15843.250; 1.24882
1361.92;  915.250;   50.750;15571.250; 1.25414
1365.91;  865.250;   46.750;15308.250; 1.27058
1369.89;  831.250;   50.750;15042.250; 1.28347
1373.87;  767.250;   48.750;14460.250; 1.30228
1377.85;  697.250;   60.750;13607.250; 1.32803
1381.82;  598.250;   48.750;12795.250; 1.36542
1385.80;  541.250;   50.750;12441.250; 1.40245
1389.77;  458.250;   54.750;12376.250; 1.48482
1393.74;  380.250;   63.750;12523.250; 1.59513
1397.70;  339.250;   57.750;12861.250; 1.65785
1401.66;  292.250;   57.750;13177.250; 1.74777
1405.62;  247.250;   34.750;13448.250; 1.80018
1409.58;  218.250;   50.750;13653.250; 1.90960
1413.54;  193.250;   50.750;13787.250; 1.98406
1417.49;  152.250;   27.750;13838.250; 2.04504
1421.44;  177.250;   63.750;13894.250; 2.08584
1425.39;  166.250;   54.750;13879.250; 2.09337
1429.33;  154.250;   64.750;13864.250; 2.18804
1433.27;  151.250;   54.750;13809.250; 2.15392
1437.21;  141.250;   48.750;13776.250; 2.17145
1441.15;  141.250;   52.750;13748.250; 2.18963
1445.09;  128.250;   60.750;13691.250; 2.30521
1449.02;  134.250;   57.750;13611.250; 2.24839
1452.95;  140.250;   52.750;13536.250; 2.18779
1456.87;  127.250;   53.750;13439.250; 2.26035
1460.80;  121.250;   43.750;13345.250; 2.23460
1464.72;  133.250;   59.750;13253.250; 2.25407
1468.64;  132.250;   43.750;13131.250; 2.16991
1472.55;  151.250;   63.750;13051.250; 2.17152
1476.47;  142.250;   43.750;12969.250; 2.11801
1480.38;  143.250;   38.750;12870.250; 2.08916
1484.28;  155.250;   54.750;12750.250; 2.10148
1488.19;  167.250;   50.750;12663.250; 2.03448
1492.09;  154.250;   28.750;12533.250; 1.99842
1495.99;  184.250;   58.750;12434.250; 1.99392
1499.89;  184.250;   46.750;12320.250; 1.95067
1503.78;  190.250;   48.750;12228.250; 1.93487
1507.67;  214.250;   52.750;12113.250; 1.87319
1511.56;  206.250;   33.750;11982.250; 1.84052
1515.44;  219.250;   50.750;11884.250; 1.84651
1519.33;  231.250;   48.750;11757.250; 1.80724
1523.21;  242.250;   35.750;11649.250; 1.75004
1527.08;  250.250;   57.750;11506.250; 1.77432
1530.96;  242.250;   39.750;11368.250; 1.74775
1534.83;  266.250;   52.750;11249.250; 1.71968
1538.70;  264.250;   57.750;11082.250; 1.72744
1542.56;  270.250;   28.750;10958.250; 1.65568
1546.42;  282.250;   39.750;10836.250; 1.64857
1550.28;  300.250;   58.750;10683.250; 1.64339
1554.14;  298.250;   39.750;10510.250; 1.60751
1557.99;  307.250;   41.750;10388.250; 1.59073
1561.84;  302.250;   33.750;10234.250; 1.57968
1565.69;  310.250;   40.750;10095.250; 1.57180
1569.54;  313.250;   24.750; 9939.250; 1.53612
1573.38;  340.250;   40.750; 9804.250; 1.51321
1577.22;  324.250;   31.750; 9649.250; 1.51694
1581.05;  326.250;   49.750; 9522.250; 1.53477
1584.89;  338.250;   45.750; 9369.250; 1.50345
1588.72;  345.250;   41.750; 9215.250; 1.48038
1592.54;  343.250;   35.750; 9061.250; 1.46763
1596.37;  339.250;   22.750; 8908.250; 1.44831
1600.19;  348.250;   43.750; 8774.250; 1.45745
1604.01;  340.250;   33.750; 8610.250; 1.44688
1607.82;  353.250;   31.750; 8473.250; 1.41924
1611.63;  328.250;   22.750; 8316.250; 1.43373
1615.44;  344.250;   26.750; 8167.250; 1.40891
1619.25;  329.250;   34.750; 7998.250; 1.43202
1623.05;  323.250;   13.750; 7822.250; 1.40191
1626.85;  329.250;   26.750; 7668.250; 1.40245
1630.64;  345.250;   42.750; 7511.250; 1.39251
1634.44;  325.250;   26.750; 7307.250; 1.38722
1638.23;  317.250;   18.750; 7114.250; 1.37604
1642.01;  328.250;   39.750; 6938.250; 1.37861
1645.80;  315.250;   42.750; 6743.250; 1.39074
1649.58;  309.250;   38.750; 6531.250; 1.38024
1653.35;  315.250;   44.750; 6309.250; 1.36472
1657.13;  271.250;   36.750; 6064.250; 1.40999
1660.90;  295.250;   34.750; 5808.250; 1.34563
1664.67;  266.250;   28.750; 5491.250; 1.36173
1668.43;  263.250;   24.750; 5119.250; 1.32961
1672.19;  236.250;   35.750; 4656.250; 1.36257
1675.95;  216.250;   31.750; 4113.250; 1.34482
1679.70;  180.250;   46.750; 3563.250; 1.42063
1683.46;  160.250;   23.750; 3047.250; 1.34538
1687.20;  158.250;   39.750; 2617.250; 1.33748
1690.95;  143.250;   36.750; 2243.250; 1.31635
1694.69;  137.250;   56.750; 1964.250; 1.37467
1698.43;  129.250;   22.750; 1699.250; 1.19705
1702.16;  117.250;   44.750; 1533.250; 1.31241
1705.89;  110.250;   30.750; 1372.250; 1.22722
1709.62;  108.250;   25.750; 1277.250; 1.18098
1713.35;  105.250;   17.750; 1187.250; 1.12599
1717.07;   91.250;   42.750; 1123.250; 1.34788
1720.79;  101.250;   41.750; 1064.250; 1.23515
1724.50;  104.250;   44.750; 1019.250; 1.21426
1728.21;  103.250;   29.750;  974.250; 1.10891
1731.92;   93.250;   25.750;  931.250; 1.12758
1735.63;   94.250;   34.750;  925.250; 1.17512
1739.33;  105.250;   23.750;  909.250; 1.03603
1743.02;   99.250;   21.750;  865.250; 1.03678
1746.72;   96.250;   33.750;  872.250; 1.12762
1750.41;  113.250;   37.750;  865.250; 1.03982
1754.10;   94.250;   44.750;  846.250; 1.20930

