
Integration time [ms]:   3.780
Averaging Nr. [scans]: 1
Smoothing Nr. [pixels]: 0
Data measured with spectrometer [name]: 1911294U1
Wave   ;Sample   ;Dark     ;Reference;Absorbance
[nm]   ;[counts] ;[counts] ;[counts] ;[A.U]

 860.61;  120.500;   67.750;  833.250; 1.16172
 864.82;  133.500;   49.750;  998.250; 1.05405
 869.02;  145.500;   59.750; 1169.250; 1.11189
 873.23;  149.500;   54.750; 1288.250; 1.11456
 877.43;  167.500;   53.750; 1415.250; 1.07807
 881.63;  172.500;   54.750; 1540.250; 1.10091
 885.83;  169.500;   49.750; 1684.250; 1.13511
 890.03;  189.500;   28.750; 1796.250; 1.04121
 894.23;  187.500;   40.750; 1929.250; 1.10954
 898.42;  188.500;   37.750; 2071.250; 1.12999
 902.62;  218.500;   56.750; 2213.250; 1.12491
 906.81;  201.500;   35.750; 2337.250; 1.14256
 911.00;  221.500;   53.750; 2523.250; 1.16795
 915.19;  236.500;   45.750; 2712.250; 1.14548
 919.38;  264.500;   47.750; 2963.250; 1.12875
 923.57;  289.500;   53.750; 3292.250; 1.13789
 927.76;  319.500;   40.750; 3728.250; 1.12152
 931.94;  335.500;   39.750; 4163.250; 1.14434
 936.13;  372.500;   53.750; 4579.250; 1.15222
 940.31;  382.500;   50.750; 4873.250; 1.16246
 944.49;  433.500;   63.750; 5167.250; 1.13996
 948.67;  424.500;   49.750; 5411.250; 1.15554
 952.85;  446.500;   50.750; 5679.250; 1.15297
 957.03;  448.500;   47.750; 5965.250; 1.16926
 961.21;  467.500;   58.750; 6236.250; 1.17935
 965.38;  485.500;   44.750; 6471.250; 1.16378
 969.55;  498.500;   37.750; 6719.250; 1.16141
 973.73;  505.500;   56.750; 6971.250; 1.18776
 977.90;  532.500;   42.750; 7222.250; 1.16612
 982.06;  546.500;   44.750; 7469.250; 1.17018
 986.23;  555.500;   51.750; 7739.250; 1.18357
 990.40;  589.500;   61.750; 7985.250; 1.17649
 994.56;  603.500;   65.750; 8243.250; 1.18204
 998.72;  606.500;   58.750; 8450.250; 1.18526
1002.88;  621.500;   57.750; 8670.250; 1.18404
1007.04;  646.500;   52.750; 8879.250; 1.17218
1011.20;  653.500;   49.750; 9068.250; 1.17428
1015.36;  652.500;   45.750; 9257.250; 1.18132
1019.51;  707.500;   60.750; 9402.250; 1.15968
1023.67;  683.500;   69.750; 9574.250; 1.18994
1027.82;  709.500;   61.750; 9729.250; 1.17391
1031.97;  705.500;   55.750; 9851.250; 1.17828
1036.12;  722.500;   49.750;10022.250; 1.17095
1040.27;  716.500;   61.750;10174.250; 1.18878
1044.41;  740.500;   73.750;10320.250; 1.18661
1048.56;  753.500;   53.750;10468.250; 1.17270
1052.70;  771.500;   58.750;10629.250; 1.17116
1056.84;  763.500;   47.750;10798.250; 1.17667
1060.98;  794.500;   67.750;10996.250; 1.17718
1065.11;  798.500;   63.750;11181.250; 1.17987
1069.25;  825.500;   63.750;11391.250; 1.17232
1073.38;  832.500;   56.750;11632.250; 1.17382
1077.52;  854.500;   70.750;11862.250; 1.17739
1081.65;  873.500;   62.750;12105.250; 1.17183
1085.77;  873.500;   60.750;12352.250; 1.17965
1089.90;  901.500;   56.750;12603.250; 1.17179
1094.03;  912.500;   65.750;12857.250; 1.17917
1098.15;  925.500;   68.750;13146.250; 1.18367
1102.27;  939.500;   66.750;13436.250; 1.18523
1106.39;  965.500;   69.750;13733.250; 1.18338
1110.51;  989.500;   69.750;14055.250; 1.18201
1114.63;  990.500;   49.750;14464.250; 1.18533
1118.74; 1025.500;   73.750;14874.250; 1.19175
1122.85; 1058.500;   70.750;15167.250; 1.18423
1126.96; 1037.500;   61.750;15350.250; 1.19503
1131.07; 1041.500;   57.750;15457.250; 1.19462
1135.18; 1025.500;   63.750;15545.250; 1.20675
1139.29; 1007.500;   45.750;15604.250; 1.20891
1143.39;  999.500;   62.750;15613.250; 1.22012
1147.49;  955.500;   71.750;15592.250; 1.24458
1151.59;  935.500;   71.750;15618.250; 1.25524
1155.69;  929.500;   64.750;15618.250; 1.25494
1159.78;  922.500;   61.750;15619.250; 1.25706
1163.88;  910.500;   66.750;15654.250; 1.26656
1167.97;  912.500;   60.750;15657.250; 1.26272
1172.06;  892.500;   60.750;15668.250; 1.27334
1176.15;  893.500;   53.750;15670.250; 1.26943
1180.23;  891.500;   59.750;15679.250; 1.27367
1184.32;  861.500;   50.750;15690.250; 1.28534
1188.40;  864.500;   57.750;15712.250; 1.28790
1192.48;  886.500;   55.750;15725.250; 1.27558
1196.56;  877.500;   53.750;15754.250; 1.28012
1200.64;  888.500;   72.750;15783.250; 1.28463
1204.71;  877.500;   50.750;15806.250; 1.28006
1208.78;  908.500;   69.750;15849.250; 1.27446
1212.85;  911.500;   54.750;15854.250; 1.26579
1216.92;  891.500;   37.750;15840.250; 1.26740
1220.99;  904.500;   49.750;15897.250; 1.26812
1225.05;  927.500;   60.750;15920.250; 1.26240
1229.11;  910.500;   53.750;15924.250; 1.26774
1233.17;  910.500;   58.750;15926.250; 1.27020
1237.23;  902.500;   49.750;15943.250; 1.27040
1241.29;  920.500;   51.750;15960.250; 1.26273
1245.34;  922.500;   79.750;16029.250; 1.27705
1249.39;  941.500;   55.750;16081.250; 1.25750
1253.44;  925.500;   36.750;16122.250; 1.25765
1257.49;  969.500;   73.750;16225.250; 1.25603
1261.53;  930.500;   40.750;16273.250; 1.26112
1265.58;  947.500;   46.750;16338.250; 1.25736
1269.62;  935.500;   46.750;16412.250; 1.26515
1273.65;  937.500;   55.750;16472.250; 1.26994
1277.69;  969.500;   53.750;16552.250; 1.25567
1281.72;  961.500;   65.750;16612.250; 1.26652
1285.76;  944.500;   66.750;16662.250; 1.27662
1289.79;  948.500;   56.750;16697.250; 1.27092
1293.81;  943.500;   44.750;16713.250; 1.26826
1297.84;  941.500;   49.750;16765.250; 1.27288
1301.86;  943.500;   43.750;16807.250; 1.27024
1305.88;  926.500;   58.750;16824.250; 1.28602
1309.90;  916.500;   49.750;16842.250; 1.28722
1313.92;  892.500;   55.750;16828.250; 1.30200
1317.93;  901.500;   65.750;16838.250; 1.30252
1321.94;  858.500;   46.750;16825.250; 1.31533
1325.95;  857.500;   64.750;16797.250; 1.32442
1329.96;  858.500;   63.750;16802.250; 1.32349
1333.96;  820.500;   52.750;16773.250; 1.33803
1337.96;  787.500;   63.750;16776.250; 1.36345
1341.96;  769.500;   46.750;16748.250; 1.36377
1345.96;  751.500;   59.750;16622.250; 1.37918
1349.95;  699.500;   42.750;16410.250; 1.39658
1353.95;  694.500;   67.750;16154.250; 1.40937
1357.94;  658.500;   50.750;15843.250; 1.41473
1361.92;  647.500;   50.750;15571.250; 1.41511
1365.91;  606.500;   46.750;15308.250; 1.43560
1369.89;  570.500;   50.750;15042.250; 1.46005
1373.87;  525.500;   48.750;14460.250; 1.48042
1377.85;  493.500;   60.750;13607.250; 1.49559
1381.82;  418.500;   48.750;12795.250; 1.53748
1385.80;  385.500;   50.750;12441.250; 1.56837
1389.77;  311.500;   54.750;12376.250; 1.68115
1393.74;  285.500;   63.750;12523.250; 1.74964
1397.70;  249.500;   57.750;12861.250; 1.82459
1401.66;  207.500;   57.750;13177.250; 1.94255
1405.62;  183.500;   34.750;13448.250; 1.95509
1409.58;  178.500;   50.750;13653.250; 2.02726
1413.54;  149.500;   50.750;13787.250; 2.14334
1417.49;  115.500;   27.750;13838.250; 2.19696
1421.44;  118.500;   63.750;13894.250; 2.40245
1425.39;  138.500;   54.750;13879.250; 2.21766
1429.33;  127.500;   64.750;13864.250; 2.34225
1433.27;  115.500;   54.750;13809.250; 2.35490
1437.21;  104.500;   48.750;13776.250; 2.39135
1441.15;  123.500;   52.750;13748.250; 2.28685
1445.09;  105.500;   60.750;13691.250; 2.48372
1449.02;  104.500;   57.750;13611.250; 2.46227
1452.95;  112.500;   52.750;13536.250; 2.35346
1456.87;  104.500;   53.750;13439.250; 2.42120
1460.80;  106.500;   43.750;13345.250; 2.32629
1464.72;  115.500;   59.750;13253.250; 2.37412
1468.64;  104.500;   43.750;13131.250; 2.33331
1472.55;  112.500;   63.750;13051.250; 2.42555
1476.47;  102.500;   43.750;12969.250; 2.34244
1480.38;  111.500;   38.750;12870.250; 2.24644
1484.28;  116.500;   54.750;12750.250; 2.31301
1488.19;  124.500;   50.750;12663.250; 2.23304
1492.09;   86.500;   28.750;12533.250; 2.33551
1495.99;  123.500;   58.750;12434.250; 2.28132
1499.89;  114.500;   46.750;12320.250; 2.25806
1503.78;  132.500;   48.750;12228.250; 2.16264
1507.67;  132.500;   52.750;12113.250; 2.17963
1511.56;  119.500;   33.750;11982.250; 2.14408
1515.44;  140.500;   50.750;11884.250; 2.12008
1519.33;  145.500;   48.750;11757.250; 2.08285
1523.21;  142.500;   35.750;11649.250; 2.03660
1527.08;  164.500;   57.750;11506.250; 2.03038
1530.96;  134.500;   39.750;11368.250; 2.07759
1534.83;  176.500;   52.750;11249.250; 1.95654
1538.70;  167.500;   57.750;11082.250; 2.00195
1542.56;  165.500;   28.750;10958.250; 1.90267
1546.42;  166.500;   39.750;10836.250; 1.93034
1550.28;  183.500;   58.750;10683.250; 1.93027
1554.14;  164.500;   39.750;10510.250; 1.92393
1557.99;  182.500;   41.750;10388.250; 1.86635
1561.84;  185.500;   33.750;10234.250; 1.82749
1565.69;  195.500;   40.750;10095.250; 1.81273
1569.54;  184.500;   24.750; 9939.250; 1.79283
1573.38;  190.500;   40.750; 9804.250; 1.81424
1577.22;  181.500;   31.750; 9649.250; 1.80770
1581.05;  203.500;   49.750; 9522.250; 1.78965
1584.89;  198.500;   45.750; 9369.250; 1.78560
1588.72;  202.500;   41.750; 9215.250; 1.75638
1592.54;  187.500;   35.750; 9061.250; 1.77434
1596.37;  209.500;   22.750; 8908.250; 1.67742
1600.19;  216.500;   43.750; 8774.250; 1.70362
1604.01;  189.500;   33.750; 8610.250; 1.74088
1607.82;  193.500;   31.750; 8473.250; 1.71758
1611.63;  188.500;   22.750; 8316.250; 1.69928
1615.44;  203.500;   26.750; 8167.250; 1.66329
1619.25;  186.500;   34.750; 7998.250; 1.71998
1623.05;  183.500;   13.750; 7822.250; 1.66276
1626.85;  187.500;   26.750; 7668.250; 1.67703
1630.64;  198.500;   42.750; 7511.250; 1.68081
1634.44;  192.500;   26.750; 7307.250; 1.64271
1638.23;  169.500;   18.750; 7114.250; 1.67273
1642.01;  176.500;   39.750; 6938.250; 1.70283
1645.80;  182.500;   42.750; 6743.250; 1.68076
1649.58;  191.500;   38.750; 6531.250; 1.62843
1653.35;  186.500;   44.750; 6309.250; 1.64536
1657.13;  171.500;   36.750; 6064.250; 1.65061
1660.90;  166.500;   34.750; 5808.250; 1.64169
1664.67;  167.500;   28.750; 5491.250; 1.59516
1668.43;  164.500;   24.750; 5119.250; 1.56175
1672.19;  155.500;   35.750; 4656.250; 1.58641
1675.95;  124.500;   31.750; 4113.250; 1.64351
1679.70;  123.500;   46.750; 3563.250; 1.66103
1683.46;  118.500;   23.750; 3047.250; 1.50393
1687.20;  114.500;   39.750; 2617.250; 1.53759
1690.95;   96.500;   36.750; 2243.250; 1.56737
1694.69;  100.500;   56.750; 1964.250; 1.63949
1698.43;   94.500;   22.750; 1699.250; 1.36858
1702.16;   99.500;   44.750; 1533.250; 1.43436
1705.89;   83.500;   30.750; 1372.250; 1.40537
1709.62;   88.500;   25.750; 1277.250; 1.29982
1713.35;   68.500;   17.750; 1187.250; 1.36256
1717.07;   83.500;   42.750; 1123.250; 1.42350
1720.79;   74.500;   41.750; 1064.250; 1.49445
1724.50;  114.500;   44.750; 1019.250; 1.14524
1728.21;   82.500;   29.750;  974.250; 1.25298
1731.92;   94.500;   25.750;  931.250; 1.11962
1735.63;   78.500;   34.750;  925.250; 1.30866
1739.33;   89.500;   23.750;  909.250; 1.12929
1743.02;   85.500;   21.750;  865.250; 1.12160
1746.72;   93.500;   33.750;  872.250; 1.14717
1750.41;  103.500;   37.750;  865.250; 1.09987
1754.10;   85.500;   44.750;  846.250; 1.29378

